10.0,1.63
20.0,1.67
30.0,1.61
40.0,1.68
50.0,1.64
60.0,1.71
70.0,1.69
80.0,1.77
90.0,1.75
100.0,1.79
110.0,1.74
120.0,1.77
130.0,1.7
140.0,1.72
150.0,1.65
160.0,1.66
170.0,1.59
180.0,1.6
190.0,1.54
200.0,1.55
210.0,1.52
220.0,1.54
230.0,1.56
240.0,1.58
250.0,1.64
260.0,1.68
270.0,1.73
280.0,1.75
291.0,1.78
300.0,1.78
310.0,1.8
320.0,1.78
330.0,1.76
340.0,1.74
350.0,1.73
360.0,1.72
370.0,1.66
380.0,1.65
390.0,1.58
400.0,1.6
410.0,1.54
420.0,1.57
430.0,1.52
440.0,1.57
450.0,1.52
460.0,1.55
470.0,1.51
480.0,1.54
490.0,1.52
500.0,1.57
510.0,1.53
520.0,1.59
530.0,1.55
540.0,1.62
550.0,1.58
560.0,1.67
570.0,1.64
580.0,1.72
590.0,1.7
600.0,1.79
610.0,1.76
620.0,1.86
630.0,1.84
640.0,1.95
650.0,1.9
660.0,1.97
670.0,1.93
680.0,1.99
690.0,1.95
700.0,2.01
710.0,1.98
720.0,2.07
730.0,2.03
740.0,2.13
750.0,2.08
760.0,2.14
770.0,2.07
780.0,2.08
790.0,1.98
800.0,1.98
810.0,1.88
820.0,1.9
830.0,1.83
840.0,1.8
850.0,1.73
860.0,1.7
870.0,1.65
880.0,1.63
890.0,1.58
900.0,1.6
910.0,1.53
920.0,1.64
931.0,1.67
940.0,1.89
950.0,2.06
960.0,2.39
970.0,2.57
980.0,2.87
990.0,3.07
1000.0,3.43
1010.0,3.66
1020.0,4.03
1030.0,4.21
1040.0,4.54
1050.0,4.65
1060.0,4.81
1070.0,4.81
1080.0,4.81
1090.0,4.81
1100.0,4.81
1110.0,4.81
1120.0,4.81
1130.0,4.82
1140.0,4.82
1150.0,4.81
1160.0,4.81
1170.0,4.7
1180.0,4.62
1190.0,4.42
1200.0,4.36
1210.0,4.16
1220.0,4.11
1230.0,3.89
1240.0,3.83
1250.0,3.58
1260.0,3.48
1270.0,3.24
1280.0,3.13
1290.0,2.91
1300.0,2.81
1310.0,2.62
1320.0,2.55
1330.0,2.39
1340.0,2.33
1350.0,2.24
1360.0,2.16
1370.0,2.08
1380.0,2.0
1390.0,1.99
1400.0,1.92
1410.0,1.96
1420.0,1.92
1430.0,2.03
1440.0,1.99
1450.0,2.15
1460.0,2.14
1470.0,2.28
1480.0,2.27
1490.0,2.4
1500.0,2.35
1510.0,2.5
1520.0,2.44
1530.0,2.61
1540.0,2.56
1550.0,2.7
1560.0,2.62
1571.0,2.74
1580.0,2.65
1590.0,2.74
1600.0,2.65
1610.0,2.74
1620.0,2.62
1630.0,2.7
1640.0,2.58
1650.0,2.64
1660.0,2.51
1670.0,2.55
1680.0,2.43
1690.0,2.48
1700.0,2.38
1710.0,2.41
1720.0,2.29
1730.0,2.31
1740.0,2.19
1750.0,2.23
1760.0,2.14
1770.0,2.18
1780.0,2.08
1790.0,2.12
1800.0,2.02
1810.0,2.04
1820.0,1.97
1830.0,2.01
1840.0,1.94
1850.0,1.97
1860.0,1.92
1870.0,1.96
1880.0,1.87
1890.0,1.9
1900.0,1.82
1910.0,1.87
1920.0,1.8
1930.0,1.87
1940.0,1.79
1950.0,1.83
1960.0,1.76
1970.0,1.8
1980.0,1.76
1990.0,1.83
2000.0,1.78
2010.0,1.85
2020.0,1.79
2030.0,1.87
2040.0,1.8
2050.0,1.88
2060.0,1.82
2070.0,1.89
2080.0,1.84
2090.0,1.94
2100.0,1.88
2110.0,1.98
2120.0,1.91
2130.0,2.01
2140.0,1.94
2150.0,2.02
2160.0,1.96
2170.0,2.05
2180.0,1.97
2190.0,2.07
2200.0,1.98
2211.0,2.1
2220.0,2.03
2230.0,2.16
2240.0,2.09
2250.0,2.18
2260.0,2.11
2270.0,2.18
2280.0,2.09
2290.0,2.16
2300.0,2.05
2310.0,2.11
2320.0,2.01
2330.0,2.09
2340.0,2.0
2350.0,2.07
2360.0,2.0
2370.0,2.07
2380.0,1.98
2390.0,2.04
2400.0,1.94
2410.0,2.01
2420.0,1.92
2430.0,2.0
2440.0,1.91
2450.0,1.98
2460.0,1.91
2470.0,1.96
2480.0,1.89
2490.0,1.96
2500.0,1.89
2510.0,1.99
2520.0,1.9
2530.0,1.99
2540.0,1.91
2550.0,1.99
2560.0,1.92
2570.0,1.96
2580.0,1.89
2590.0,1.95
2600.0,1.87
2610.0,1.97
2620.0,1.88
2630.0,1.97
2640.0,1.91
2650.0,1.98
2660.0,1.95
2670.0,2.01
2681.0,1.94
2690.0,2.0
2700.0,1.91
2710.0,1.98
2720.0,1.9
2730.0,1.99
2740.0,1.91
2750.0,2.01
2760.0,1.94
2770.0,2.0
2780.0,1.92
2790.0,1.99
2800.0,1.91
2810.0,1.98
2820.0,1.9
2830.0,1.97
2840.0,1.89
2851.0,1.95
2860.0,1.88
2870.0,1.93
2880.0,1.85
2890.0,1.89
2900.0,1.8
2910.0,1.84
2920.0,1.76
2930.0,1.79
2940.0,1.73
2950.0,1.75
2960.0,1.69
2970.0,1.72
2980.0,1.66
2990.0,1.68
3000.0,1.62
3010.0,1.65
3020.0,1.57
3030.0,1.62
3040.0,1.56
3050.0,1.6
3060.0,1.55
3070.0,1.58
3080.0,1.54
3090.0,1.59
3100.0,1.54
3110.0,1.59
3120.0,1.54
3130.0,1.59
3140.0,1.54
3150.0,1.58
3160.0,1.55
3170.0,1.56
3180.0,1.52
3190.0,1.52
3200.0,1.51
3210.0,1.52
3220.0,1.52
3230.0,1.49
3240.0,1.5
3250.0,1.49
3260.0,1.52
3270.0,1.48
3280.0,1.54
3290.0,1.52
3300.0,1.67
3310.0,1.65
3321.0,1.79
3330.0,1.75
3340.0,1.93
3350.0,1.9
3360.0,2.02
3370.0,2.0
3380.0,2.1
3390.0,2.03
3400.0,2.11
3410.0,2.03
3420.0,2.14
3430.0,2.05
3440.0,2.14
3450.0,2.04
3460.0,2.13
3470.0,2.05
3480.0,2.12
3491.0,2.04
3500.0,2.14
3510.0,2.08
3520.0,2.19
3530.0,2.1
3540.0,2.19
3550.0,2.1
3560.0,2.17
3570.0,2.08
3580.0,2.14
3590.0,2.04
3600.0,2.07
3610.0,1.97
3620.0,2.0
3630.0,1.92
3640.0,1.93
3650.0,1.85
3660.0,1.85
3670.0,1.79
3680.0,1.76
3690.0,1.72
3700.0,1.69
3710.0,1.68
3720.0,1.65
3730.0,1.65
3740.0,1.63
3750.0,1.63
3760.0,1.61
3770.0,1.63
3780.0,1.61
3790.0,1.61
3800.0,1.59
3810.0,1.6
3820.0,1.58
3830.0,1.6
3840.0,1.59
3850.0,1.61
3860.0,1.58
3870.0,1.58
3880.0,1.56
3890.0,1.58
3900.0,1.55
3910.0,1.59
3920.0,1.59
3930.0,1.6
3940.0,1.58
3950.0,1.6
3961.0,1.58
3970.0,1.59
3980.0,1.56
3990.0,1.6
4000.0,1.56
4010.0,1.6
4020.0,1.58
4030.0,1.61
4040.0,1.6
4050.0,1.63
4060.0,1.62
4070.0,1.65
4080.0,1.64
4090.0,1.65
4100.0,1.6
4110.0,1.65
4120.0,1.62
4131.0,1.67
4140.0,1.64
4150.0,1.66
4160.0,1.63
4170.0,1.64
4180.0,1.62
4190.0,1.62
4200.0,1.6
4210.0,1.63
4220.0,1.62
4230.0,1.6
4240.0,1.59
4250.0,1.59
4260.0,1.61
4270.0,1.59
4280.0,1.6
4290.0,1.58
4300.0,1.57
4310.0,1.58
4320.0,1.57
4330.0,1.57
4340.0,1.56
4350.0,1.57
4360.0,1.55
4370.0,1.55
4380.0,1.54
4390.0,1.55
4400.0,1.53
4410.0,1.54
4420.0,1.51
4430.0,1.53
4440.0,1.52
4450.0,1.54
4460.0,1.51
4470.0,1.52
4480.0,1.48
4490.0,1.5
4500.0,1.48
4510.0,1.49
4520.0,1.48
4530.0,1.51
4540.0,1.49
4550.0,1.49
4560.0,1.46
4570.0,1.47
4580.0,1.43
4590.0,1.46
4601.0,1.42
4610.0,1.44
4620.0,1.42
4630.0,1.43
4640.0,1.4
4650.0,1.41
4660.0,1.39
4670.0,1.4
4680.0,1.37
4690.0,1.39
4700.0,1.36
4710.0,1.38
4720.0,1.34
4730.0,1.36
4740.0,1.34
4750.0,1.35
4760.0,1.36
4771.0,1.36
4780.0,1.35
4790.0,1.36
4800.0,1.33
4810.0,1.34
4820.0,1.33
4830.0,1.35
4840.0,1.32
4850.0,1.34
4860.0,1.31
4870.0,1.33
4880.0,1.3
4890.0,1.3
4900.0,1.27
4910.0,1.28
4920.0,1.24
4930.0,1.26
4940.0,1.23
4950.0,1.24
4960.0,1.21
4970.0,1.23
4980.0,1.19
4990.0,1.22
5000.0,1.18
5010.0,1.2
5020.0,1.16
5030.0,1.17
5040.0,1.15
5050.0,1.17
5060.0,1.15
5070.0,1.15
5080.0,1.13
5090.0,1.13
5100.0,1.12
5110.0,1.13
5120.0,1.11
5130.0,1.12
5140.0,1.13
5150.0,1.14
5160.0,1.14
5170.0,1.17
5180.0,1.26
5190.0,1.35
5200.0,1.43
5210.0,1.53
5220.0,1.56
5230.0,1.64
5241.0,1.71
5250.0,1.75
5260.0,1.79
5270.0,1.81
5280.0,1.82
5290.0,1.85
5300.0,1.87
5310.0,1.88
5320.0,1.89
5330.0,1.91
5340.0,1.89
5350.0,1.93
5360.0,1.93
5370.0,1.94
5380.0,1.93
5390.0,1.98
5400.0,1.97
5411.0,1.99
5420.0,1.98
5430.0,1.98
5440.0,1.93
5450.0,1.93
5460.0,1.86
5470.0,1.88
5480.0,1.81
5490.0,1.86
5500.0,1.8
5510.0,1.88
5520.0,1.81
5530.0,1.88
5540.0,1.83
5550.0,1.91
5560.0,1.89
5570.0,1.96
5580.0,1.95
5590.0,2.03
5600.0,2.02
5610.0,2.1
5620.0,2.11
5630.0,2.19
5640.0,2.16
5650.0,2.22
5660.0,2.18
5670.0,2.21
5680.0,2.15
5690.0,2.17
5700.0,2.11
5710.0,2.13
5720.0,2.05
5730.0,2.08
5740.0,2.0
5750.0,2.04
5760.0,1.96
5770.0,1.97
5780.0,1.89
5790.0,1.93
5800.0,1.84
5810.0,1.84
5820.0,1.78
5830.0,1.82
5840.0,1.76
5850.0,1.81
5860.0,1.74
5870.0,1.78
5881.0,1.73
5890.0,1.8
5900.0,1.75
5910.0,1.78
5920.0,1.73
5930.0,1.78
5940.0,1.72
5950.0,1.76
5960.0,1.72
5970.0,1.75
5980.0,1.71
5990.0,1.76
6000.0,1.72
6010.0,1.78
6020.0,1.73
6030.0,1.77
6040.0,1.73
6051.0,1.77
6060.0,1.74
6070.0,1.78
6080.0,1.74
6090.0,1.78
6100.0,1.73
6110.0,1.79
6120.0,1.71
6130.0,1.78
6140.0,1.72
6150.0,1.77
6160.0,1.71
6170.0,1.76
6180.0,1.69
6190.0,1.72
6200.0,1.65
6210.0,1.71
6220.0,1.66
6230.0,1.73
6240.0,1.68
6250.0,1.77
6260.0,1.71
6270.0,1.81
6280.0,1.74
6290.0,1.82
6300.0,1.74
6310.0,1.81
6320.0,1.74
6330.0,1.83
6340.0,1.77
6350.0,1.83
6360.0,1.77
6370.0,1.82
6380.0,1.75
6390.0,1.8
6400.0,1.73
6410.0,1.77
6420.0,1.7
6430.0,1.75
6440.0,1.68
6450.0,1.73
6460.0,1.67
6470.0,1.71
6480.0,1.65
6490.0,1.72
6500.0,1.66
6510.0,1.72
6521.0,1.66
6530.0,1.73
6540.0,1.66
6550.0,1.72
6560.0,1.66
6570.0,1.72
6580.0,1.66
6590.0,1.72
6600.0,1.66
6610.0,1.72
6620.0,1.66
6630.0,1.71
6640.0,1.66
6650.0,1.69
6660.0,1.64
6670.0,1.66
6680.0,1.61
6691.0,1.66
6700.0,1.62
6710.0,1.66
6720.0,1.63
6730.0,1.68
6740.0,1.64
6750.0,1.7
6760.0,1.67
6770.0,1.69
6780.0,1.64
6790.0,1.68
6800.0,1.64
6810.0,1.69
6820.0,1.66
6830.0,1.69
6840.0,1.66
6850.0,1.7
6860.0,1.66
6870.0,1.68
6880.0,1.64
6890.0,1.66
6900.0,1.62
6910.0,1.67
6920.0,1.64
6930.0,1.71
6940.0,1.68
6950.0,1.74
6960.0,1.71
6970.0,1.74
6980.0,1.7
6990.0,1.73
7000.0,1.68
7010.0,1.71
7020.0,1.67
7030.0,1.7
7040.0,1.67
7050.0,1.69
7060.0,1.66
7070.0,1.69
7080.0,1.66
7090.0,1.68
7100.0,1.64
7110.0,1.68
7120.0,1.64
7130.0,1.7
7140.0,1.66
7150.0,1.73
7161.0,1.68
7170.0,1.73
7180.0,1.68
7190.0,1.73
7200.0,1.67
7210.0,1.74
7220.0,1.69
7230.0,1.73
7240.0,1.69
7250.0,1.7
7260.0,1.66
7270.0,1.67
7280.0,1.64
7290.0,1.68
7300.0,1.65
7310.0,1.7
7320.0,1.67
7331.0,1.7
7340.0,1.67
7350.0,1.72
7360.0,1.68
7370.0,1.69
7380.0,1.65
7390.0,1.68
7400.0,1.66
7410.0,1.69
7420.0,1.68
7430.0,1.7
7440.0,1.68
7450.0,1.7
7460.0,1.67
7470.0,1.68
7480.0,1.65
7490.0,1.67
7500.0,1.64
7510.0,1.66
7520.0,1.64
7530.0,1.65
7540.0,1.64
7550.0,1.66
7560.0,1.64
7570.0,1.68
7580.0,1.65
7590.0,1.67
7600.0,1.64
7610.0,1.66
7620.0,1.66
7630.0,1.67
7640.0,1.65
7650.0,1.66
7660.0,1.65
7670.0,1.67
7680.0,1.66
7690.0,1.67
7700.0,1.65
7710.0,1.67
7720.0,1.66
7730.0,1.67
7740.0,1.65
7750.0,1.66
7760.0,1.64
7770.0,1.67
7780.0,1.64
7790.0,1.66
7801.0,1.64
7810.0,1.67
7820.0,1.66
7830.0,1.67
7840.0,1.66
7850.0,1.67
7860.0,1.66
7870.0,1.67
7880.0,1.66
7890.0,1.67
7900.0,1.66
7910.0,1.66
7920.0,1.67
7930.0,1.67
7940.0,1.67
7950.0,1.67
7960.0,1.68
7971.0,1.68
7980.0,1.68
7990.0,1.67
8000.0,1.67
8010.0,1.67
8020.0,1.68
8030.0,1.65
8040.0,1.65
8050.0,1.65
8060.0,1.64
8070.0,1.64
8080.0,1.64
8090.0,1.62
8100.0,1.62
8110.0,1.62
8120.0,1.63
8130.0,1.62
8140.0,1.61
8150.0,1.62
8160.0,1.62
8170.0,1.63
8180.0,1.64
8190.0,1.62
8200.0,1.63
8210.0,1.63
8220.0,1.66
8230.0,1.65
8240.0,1.68
8250.0,1.66
8260.0,1.68
8270.0,1.67
8280.0,1.69
8290.0,1.68
8300.0,1.69
8310.0,1.7
8320.0,1.72
8330.0,1.71
8340.0,1.74
8350.0,1.71
8360.0,1.73
8370.0,1.7
8380.0,1.72
8390.0,1.7
8400.0,1.72
8410.0,1.71
8420.0,1.74
8430.0,1.73
8441.0,1.77
8450.0,1.74
8460.0,1.84
8470.0,1.81
8480.0,1.91
8490.0,1.85
8500.0,1.96
8510.0,1.94
8520.0,2.16
8530.0,2.16
8540.0,2.44
8550.0,2.47
8560.0,2.75
8570.0,2.75
8580.0,2.98
8590.0,2.94
8600.0,3.14
8611.0,3.06
8620.0,3.2
8630.0,3.04
8640.0,3.1
8650.0,2.9
8660.0,2.93
8670.0,2.79
8680.0,2.82
8690.0,2.67
8700.0,2.69
8710.0,2.57
8720.0,2.6
8730.0,2.48
8740.0,2.52
8750.0,2.38
8760.0,2.41
8770.0,2.28
8780.0,2.31
8790.0,2.21
8800.0,2.27
8810.0,2.19
8820.0,2.29
8830.0,2.22
8840.0,2.35
8850.0,2.27
8860.0,2.39
8870.0,2.31
8880.0,2.4
8890.0,2.31
8900.0,2.39
8910.0,2.28
8920.0,2.32
8930.0,2.22
8940.0,2.22
8950.0,2.15
8960.0,2.1
8970.0,2.07
8980.0,2.0
8990.0,1.99
9000.0,1.93
9010.0,1.95
9020.0,1.89
9030.0,1.9
9040.0,1.85
9050.0,1.87
9060.0,1.83
9070.0,1.83
9081.0,1.82
9090.0,1.8
9100.0,1.82
9110.0,1.79
9120.0,1.88
9130.0,1.85
9140.0,1.95
9150.0,1.89
9160.0,1.98
9170.0,1.93
9180.0,1.98
9190.0,1.91
9200.0,1.94
9210.0,1.89
9220.0,1.92
9230.0,1.86
9240.0,1.89
9251.0,1.84
9260.0,1.87
9270.0,1.83
9280.0,1.84
9290.0,1.82
9300.0,1.81
9310.0,1.8
9320.0,1.79
9330.0,1.8
9340.0,1.78
9350.0,1.79
9360.0,1.75
9370.0,1.77
9380.0,1.72
9390.0,1.76
9400.0,1.7
9410.0,1.77
9420.0,1.73
9430.0,1.79
9440.0,1.74
9450.0,1.82
9460.0,1.76
9470.0,1.82
9480.0,1.76
9490.0,1.8
9500.0,1.74
9510.0,1.78
9520.0,1.72
9530.0,1.8
9540.0,1.74
9551.0,1.81
9560.0,1.75
9570.0,1.82
9580.0,1.76
9590.0,1.82
9600.0,1.76
9610.0,1.8
9620.0,1.74
9630.0,1.77
9640.0,1.72
9650.0,1.77
9660.0,1.73
9670.0,1.77
9680.0,1.74
9690.0,1.76
9700.0,1.73
9710.0,1.75
9721.0,1.71
9730.0,1.73
9740.0,1.69
9750.0,1.74
9760.0,1.7
9770.0,1.74
9780.0,1.71
9790.0,1.76
9800.0,1.71
9810.0,1.74
9820.0,1.7
9830.0,1.74
9840.0,1.71
9850.0,1.74
9860.0,1.69
9870.0,1.74
9880.0,1.7
9891.0,1.77
9900.0,1.72
9910.0,1.81
9920.0,1.77
9930.0,1.86
9940.0,1.81
9950.0,1.88
9960.0,1.82
9970.0,1.88
9980.0,1.83
9990.0,1.89
10000.0,1.82
10010.0,1.86
10020.0,1.78
10030.0,1.82
10040.0,1.77
10050.0,1.8
10060.0,1.75
10070.0,1.78
10080.0,1.74
10090.0,1.75
10100.0,1.72
10110.0,1.72
10120.0,1.68
10130.0,1.71
10140.0,1.69
10150.0,1.71
10160.0,1.67
10170.0,1.7
10180.0,1.69
10191.0,1.69
10200.0,1.67
10210.0,1.68
10220.0,1.65
10230.0,1.66
10240.0,1.64
10250.0,1.64
10260.0,1.62
10270.0,1.64
10280.0,1.63
10290.0,1.65
10300.0,1.63
10310.0,1.66
10320.0,1.64
10330.0,1.66
10340.0,1.62
10350.0,1.63
10361.0,1.6
10370.0,1.65
10380.0,1.62
10390.0,1.71
10400.0,1.75
10410.0,1.88
10420.0,1.84
10430.0,1.96
10440.0,1.91
10450.0,2.0
10460.0,2.0
10470.0,2.03
10480.0,2.08
10490.0,2.27
10500.0,2.37
10510.0,2.61
10520.0,2.65
10531.0,2.74
10540.0,2.88
10550.0,2.89
10560.0,2.69
10570.0,2.62
10580.0,2.54
10590.0,2.39
10600.0,2.4
10610.0,2.45
10620.0,2.71
10630.0,2.63
10640.0,3.0
10650.0,2.99
10660.0,3.17
10670.0,3.12
10680.0,3.25
10690.0,3.16
10700.0,3.2
10710.0,2.99
10720.0,2.9
10730.0,2.71
10740.0,2.54
10750.0,2.41
10760.0,2.29
10770.0,2.27
10780.0,2.17
10790.0,2.18
10800.0,2.06
10810.0,2.0
10820.0,1.98
10831.0,1.96
10840.0,2.01
10850.0,1.94
10860.0,1.94
10870.0,1.9
10880.0,1.93
10890.0,1.89
10900.0,1.95
10910.0,1.92
10920.0,1.95
10930.0,1.93
10940.0,1.92
10950.0,1.84
10960.0,1.84
10970.0,1.79
10980.0,1.81
10990.0,1.77
11001.0,1.77
11010.0,1.76
11020.0,1.73
11030.0,1.74
11040.0,1.71
11050.0,1.7
11060.0,1.69
11070.0,1.68
11080.0,1.7
11090.0,1.67
11100.0,1.67
11110.0,1.65
11120.0,1.64
11130.0,1.63
11140.0,1.63
11150.0,1.62
11160.0,1.61
11171.0,1.61
11180.0,1.63
11190.0,1.62
11200.0,1.63
11210.0,1.6
11220.0,1.65
11230.0,1.66
11240.0,1.64
11250.0,1.63
11260.0,1.63
11270.0,1.68
11280.0,1.68
11290.0,1.71
11300.0,1.74
11310.0,1.8
11320.0,1.8
11330.0,1.87
11340.0,1.86
11350.0,1.94
11360.0,1.9
11370.0,1.93
11380.0,1.92
11390.0,1.92
11400.0,1.89
11410.0,1.86
11420.0,1.84
11430.0,1.81
11440.0,1.8
11450.0,1.74
11460.0,1.73
11471.0,1.76
11480.0,1.8
11490.0,1.88
11500.0,1.93
11510.0,1.98
11520.0,1.96
11530.0,1.94
11540.0,1.9
11550.0,1.86
11560.0,1.84
11570.0,1.82
11580.0,1.82
11590.0,1.78
11600.0,1.77
11610.0,1.74
11620.0,1.73
11630.0,1.7
11641.0,1.75
11650.0,1.72
11660.0,1.72
11670.0,1.69
11680.0,1.74
11690.0,1.74
11700.0,1.75
11710.0,1.76
11720.0,1.82
11730.0,1.98
11740.0,2.14
11750.0,2.57
11760.0,3.04
11770.0,3.6
11780.0,4.09
11790.0,4.61
11800.0,4.82
11811.0,4.81
11820.0,4.81
11830.0,4.82
11840.0,4.82
11850.0,4.81
11860.0,4.81
11870.0,4.64
11880.0,4.31
11890.0,4.01
11900.0,3.73
11910.0,3.48
11920.0,3.31
11930.0,3.11
11940.0,2.98
11950.0,2.9
11960.0,2.83
11970.0,2.83
11980.0,2.83
11990.0,2.87
12000.0,2.87
12010.0,2.95
12020.0,3.03
12030.0,3.07
12040.0,3.16
12050.0,3.29
12060.0,3.35
12070.0,3.46
12080.0,3.53
12090.0,3.53
12100.0,3.56
12111.0,3.5
12120.0,3.48
12130.0,3.41
12140.0,3.36
12150.0,3.26
12160.0,3.17
12170.0,3.04
12180.0,2.94
12190.0,2.77
12200.0,2.68
12210.0,2.52
12220.0,2.44
12230.0,2.3
12240.0,2.27
12250.0,2.15
12260.0,2.14
12270.0,2.04
12281.0,2.07
12290.0,2.0
12300.0,2.06
12310.0,2.02
12320.0,2.07
12330.0,2.05
12340.0,2.11
12350.0,2.12
12360.0,2.22
12370.0,2.26
12380.0,2.36
12390.0,2.41
12400.0,2.47
12410.0,2.53
12420.0,2.57
12430.0,2.61
12440.0,2.67
12451.0,2.68
12460.0,2.74
12470.0,2.73
12480.0,2.77
12490.0,2.76
12500.0,2.8
12510.0,2.78
12520.0,2.76
12530.0,2.75
12540.0,2.7
12550.0,2.61
12560.0,2.6
12570.0,2.47
12581.0,2.48
12590.0,2.35
12600.0,2.34
12610.0,2.23
12620.0,2.25
12630.0,2.14
12640.0,2.13
12650.0,2.02
12660.0,2.02
12670.0,1.95
12680.0,1.99
12690.0,1.91
12700.0,1.95
12710.0,1.9
12720.0,1.94
12730.0,1.9
12740.0,1.92
12751.0,1.87
12760.0,1.9
12770.0,1.82
12780.0,1.9
12790.0,1.83
12800.0,1.87
12810.0,1.82
12820.0,1.86
12830.0,1.8
12840.0,1.82
12850.0,1.75
12860.0,1.82
12870.0,1.75
12880.0,1.82
12890.0,1.76
12900.0,1.81
12910.0,1.74
12921.0,1.79
12930.0,1.73
12940.0,1.78
12950.0,1.73
12960.0,1.77
12970.0,1.71
12980.0,1.78
12990.0,1.73
13000.0,1.75
13010.0,1.71
13020.0,1.74
13030.0,1.7
13040.0,1.75
13051.0,1.7
13060.0,1.74
13070.0,1.68
13080.0,1.76
13091.0,1.71
13100.0,1.76
13110.0,1.69
13120.0,1.77
13130.0,1.69
13140.0,1.76
13150.0,1.7
13160.0,1.76
13170.0,1.7
13180.0,1.77
13190.0,1.71
13200.0,1.81
13210.0,1.74
13221.0,1.82
13230.0,1.74
13240.0,1.8
13250.0,1.74
13260.0,1.77
13270.0,1.71
13280.0,1.79
13290.0,1.74
13300.0,1.8
13310.0,1.74
13320.0,1.76
13330.0,1.7
13340.0,1.73
13350.0,1.67
13360.0,1.74
13370.0,1.66
13380.0,1.73
13391.0,1.68
13400.0,1.74
13410.0,1.68
13420.0,1.73
13430.0,1.67
13440.0,1.72
13450.0,1.68
13460.0,1.72
13470.0,1.67
13480.0,1.72
13490.0,1.69
13500.0,1.73
13510.0,1.71
13520.0,1.74
13530.0,1.71
13540.0,1.73
13550.0,1.71
13561.0,1.72
13570.0,1.69
13580.0,1.73
13590.0,1.71
13600.0,1.74
13610.0,1.72
13620.0,1.74
13630.0,1.7
13640.0,1.71
13650.0,1.67
13660.0,1.7
13670.0,1.65
13680.0,1.71
13691.0,1.68
13700.0,1.73
13710.0,1.69
13720.0,1.71
13731.0,1.67
13740.0,1.68
13750.0,1.67
13760.0,1.67
13770.0,1.65
13780.0,1.69
13790.0,1.7
13800.0,1.73
13810.0,1.75
13820.0,1.76
13830.0,1.78
13840.0,1.76
13850.0,1.8
13861.0,1.77
13870.0,1.8
13880.0,1.82
13890.0,1.85
13900.0,1.86
13910.0,1.9
13920.0,1.9
13930.0,1.92
13940.0,1.92
13950.0,1.94
13960.0,1.89
13970.0,1.91
13980.0,1.89
13990.0,1.92
14000.0,1.89
14010.0,1.96
14020.0,1.94
14031.0,1.99
14040.0,1.96
14050.0,2.01
14060.0,1.97
14070.0,1.99
14080.0,1.97
14090.0,1.99
14100.0,1.95
14110.0,1.97
14120.0,1.93
14130.0,1.95
14140.0,1.91
14150.0,1.93
14160.0,1.89
14170.0,1.89
14180.0,1.87
14190.0,1.9
14201.0,1.87
14210.0,1.9
14220.0,1.85
14230.0,1.88
14240.0,1.84
14250.0,1.86
14260.0,1.81
14270.0,1.82
14280.0,1.8
14290.0,1.81
14300.0,1.79
14310.0,1.81
14320.0,1.78
14331.0,1.79
14340.0,1.77
14350.0,1.79
14360.0,1.75
14371.0,1.75
14380.0,1.74
14390.0,1.77
14400.0,1.77
14410.0,1.8
14420.0,1.76
14430.0,1.76
14440.0,1.74
14450.0,1.74
14460.0,1.7
14470.0,1.71
14480.0,1.7
14490.0,1.72
14501.0,1.72
14510.0,1.74
14520.0,1.73
14530.0,1.74
14540.0,1.73
14550.0,1.75
14560.0,1.72
14570.0,1.74
14580.0,1.71
14590.0,1.74
14600.0,1.73
14610.0,1.75
14620.0,1.72
14630.0,1.75
14640.0,1.74
14650.0,1.76
14660.0,1.72
14671.0,1.74
14680.0,1.71
14690.0,1.74
14700.0,1.71
14710.0,1.72
14720.0,1.7
14730.0,1.72
14740.0,1.69
14750.0,1.72
14760.0,1.71
14770.0,1.74
14780.0,1.71
14790.0,1.74
14800.0,1.7
14810.0,1.73
14820.0,1.7
14830.0,1.72
14841.0,1.69
14850.0,1.72
14860.0,1.71
14870.0,1.73
14880.0,1.71
14890.0,1.74
14900.0,1.72
14910.0,1.74
14920.0,1.7
14930.0,1.73
14940.0,1.68
14950.0,1.71
14960.0,1.67
14971.0,1.69
14980.0,1.67
14990.0,1.7
15000.0,1.68
15011.0,1.7
15020.0,1.67
15030.0,1.7
15040.0,1.67
15050.0,1.7
15060.0,1.65
15070.0,1.69
15080.0,1.66
15090.0,1.71
15100.0,1.69
15110.0,1.74
15120.0,1.72
15130.0,1.75
15141.0,1.73
15150.0,1.75
15160.0,1.71
15170.0,1.73
15180.0,1.68
15190.0,1.73
15200.0,1.7
15210.0,1.74
15220.0,1.71
15230.0,1.73
15240.0,1.73
15250.0,1.75
15260.0,1.72
15270.0,1.73
15280.0,1.7
15290.0,1.71
15300.0,1.71
15311.0,1.74
15320.0,1.72
15330.0,1.71
15340.0,1.71
15350.0,1.72
15360.0,1.69
15370.0,1.7
15380.0,1.66
15390.0,1.69
15400.0,1.67
15410.0,1.7
15420.0,1.66
15430.0,1.68
15440.0,1.66
15450.0,1.67
15460.0,1.65
15470.0,1.67
15481.0,1.65
15490.0,1.67
15500.0,1.67
15510.0,1.69
15520.0,1.68
15530.0,1.66
15540.0,1.67
15550.0,1.66
15560.0,1.63
15570.0,1.64
15580.0,1.66
15590.0,1.64
15600.0,1.66
15611.0,1.66
15620.0,1.66
15630.0,1.65
15640.0,1.66
15651.0,1.64
15660.0,1.64
15670.0,1.62
15680.0,1.62
15690.0,1.61
15700.0,1.65
15710.0,1.64
15720.0,1.68
15730.0,1.64
15740.0,1.67
15750.0,1.64
15760.0,1.67
15770.0,1.64
15781.0,1.65
15790.0,1.62
15800.0,1.66
15810.0,1.64
15820.0,1.69
15830.0,1.65
15840.0,1.68
15850.0,1.65
15860.0,1.68
15870.0,1.65
15880.0,1.66
15890.0,1.63
15900.0,1.66
15910.0,1.65
15920.0,1.67
15930.0,1.63
15940.0,1.65
15951.0,1.61
15960.0,1.62
15970.0,1.6
15980.0,1.61
15990.0,1.59
16000.0,1.62
16010.0,1.6
16020.0,1.63
16030.0,1.59
16040.0,1.63
16050.0,1.58
16060.0,1.63
16070.0,1.59
16081.0,1.65
16090.0,1.62
16100.0,1.72
16110.0,1.7
16121.0,1.75
16130.0,1.71
16140.0,1.75
16150.0,1.7
16160.0,1.72
16170.0,1.67
16180.0,1.69
16190.0,1.65
16200.0,1.72
16210.0,1.69
16220.0,1.74
16230.0,1.7
16240.0,1.73
16251.0,1.67
16260.0,1.72
16270.0,1.67
16280.0,1.71
16291.0,1.66
16300.0,1.75
16310.0,1.71
16320.0,1.78
16330.0,1.73
16340.0,1.79
16350.0,1.73
16360.0,1.78
16370.0,1.72
16380.0,1.74
16390.0,1.71
16400.0,1.77
16410.0,1.73
16421.0,1.78
16430.0,1.73
16440.0,1.76
16450.0,1.72
16460.0,1.77
16470.0,1.72
16480.0,1.77
16490.0,1.72
16500.0,1.79
16510.0,1.76
16520.0,1.81
16530.0,1.76
16540.0,1.8
16551.0,1.74
16560.0,1.79
16570.0,1.74
16580.0,1.79
16591.0,1.74
16600.0,1.8
16610.0,1.77
16620.0,1.81
16630.0,1.76
16640.0,1.78
16650.0,1.72
16660.0,1.74
16670.0,1.7
16680.0,1.72
16690.0,1.68
16700.0,1.74
16710.0,1.72
16721.0,1.75
16730.0,1.72
16740.0,1.74
16750.0,1.71
16761.0,1.72
16770.0,1.68
16780.0,1.68
16790.0,1.65
16800.0,1.69
16810.0,1.68
16820.0,1.71
16830.0,1.67
16840.0,1.69
16850.0,1.67
16860.0,1.68
16870.0,1.68
16880.0,1.68
16891.0,1.66
16900.0,1.7
16910.0,1.69
16920.0,1.7
16931.0,1.67
16940.0,1.69
16950.0,1.66
16960.0,1.69
16970.0,1.66
16980.0,1.67
16990.0,1.65
17000.0,1.69
17010.0,1.68
17021.0,1.72
17030.0,1.69
17040.0,1.72
17050.0,1.7
17061.0,1.72
17070.0,1.68
17080.0,1.7
17090.0,1.68
17100.0,1.71
17110.0,1.71
17120.0,1.72
17130.0,1.7
17140.0,1.7
17150.0,1.67
17160.0,1.68
17170.0,1.67
17180.0,1.68
17191.0,1.66
17200.0,1.69
17210.0,1.7
17220.0,1.71
17231.0,1.71
17240.0,1.7
17250.0,1.69
17260.0,1.68
17270.0,1.66
17280.0,1.64
17290.0,1.65
17300.0,1.67
17310.0,1.68
17320.0,1.68
17330.0,1.68
17340.0,1.67
17350.0,1.66
17361.0,1.64
17370.0,1.64
17380.0,1.61
17390.0,1.62
17401.0,1.62
17410.0,1.64
17420.0,1.64
17430.0,1.66
17440.0,1.65
17450.0,1.66
17460.0,1.63
17470.0,1.63
17480.0,1.6
17491.0,1.62
17500.0,1.6
17510.0,1.64
17520.0,1.62
17531.0,1.64
17540.0,1.63
17550.0,1.63
17560.0,1.62
17571.0,1.64
17580.0,1.6
17590.0,1.61
17600.0,1.59
17610.0,1.65
17620.0,1.61
17630.0,1.66
17640.0,1.62
17650.0,1.65
17661.0,1.62
17670.0,1.64
17680.0,1.6
17690.0,1.63
17701.0,1.61
17710.0,1.67
17720.0,1.63
17730.0,1.67
17740.0,1.64
17750.0,1.66
17760.0,1.62
17770.0,1.66
17780.0,1.6
17790.0,1.66
17800.0,1.63
17810.0,1.7
17820.0,1.66
17831.0,1.72
17840.0,1.67
17850.0,1.71
17860.0,1.66
17871.0,1.7
17880.0,1.64
17890.0,1.69
17900.0,1.64
17910.0,1.72
17920.0,1.67
17930.0,1.72
17940.0,1.67
17950.0,1.69
17961.0,1.63
17970.0,1.67
17980.0,1.6
17990.0,1.65
18001.0,1.6
18010.0,1.68
18020.0,1.63
18030.0,1.7
18041.0,1.66
18050.0,1.7
18060.0,1.65
18070.0,1.69
18080.0,1.62
18090.0,1.68
18100.0,1.62
18110.0,1.72
18120.0,1.66
18131.0,1.73
18140.0,1.68
18150.0,1.74
18160.0,1.69
18171.0,1.73
18180.0,1.66
18190.0,1.73
18200.0,1.67
18211.0,1.76
18220.0,1.71
18230.0,1.77
18240.0,1.71
18250.0,1.74
18260.0,1.68
18270.0,1.72
18280.0,1.65
18290.0,1.72
18301.0,1.66
18310.0,1.74
18320.0,1.68
18330.0,1.72
18341.0,1.66
18350.0,1.7
18360.0,1.64
18370.0,1.68
18380.0,1.62
18390.0,1.68
18400.0,1.62
18410.0,1.69
18420.0,1.63
18430.0,1.69
18440.0,1.63
18450.0,1.67
18460.0,1.61
18471.0,1.68
18480.0,1.61
18490.0,1.68
18500.0,1.62
18511.0,1.7
18520.0,1.64
18530.0,1.71
18540.0,1.66
18550.0,1.71
18560.0,1.65
18570.0,1.69
18580.0,1.63
18590.0,1.69
18601.0,1.63
18610.0,1.71
18620.0,1.66
18630.0,1.73
18641.0,1.66
18650.0,1.69
18660.0,1.62
18670.0,1.66
18681.0,1.61
18690.0,1.66
18700.0,1.61
18710.0,1.68
18720.0,1.64
18730.0,1.71
18740.0,1.66
18750.0,1.69
18760.0,1.63
18771.0,1.65
18780.0,1.61
18790.0,1.66
18800.0,1.61
18811.0,1.69
18820.0,1.65
18830.0,1.7
18840.0,1.66
18851.0,1.69
18860.0,1.64
18870.0,1.68
18880.0,1.63
18890.0,1.7
18900.0,1.66
18910.0,1.72
18920.0,1.68
18930.0,1.73
18941.0,1.7
18950.0,1.72
18960.0,1.68
18970.0,1.72
18981.0,1.67
18990.0,1.7
19000.0,1.66
19010.0,1.72
19020.0,1.69
19030.0,1.74
19040.0,1.7
19050.0,1.74
19060.0,1.7
19070.0,1.73
19080.0,1.7
19090.0,1.74
19100.0,1.7
19111.0,1.74
19120.0,1.71
19130.0,1.75
19140.0,1.73
19151.0,1.75
19160.0,1.71
19170.0,1.74
19180.0,1.71
19190.0,1.74
19200.0,1.71
19210.0,1.74
19220.0,1.71
19230.0,1.74
19241.0,1.71
19250.0,1.73
19260.0,1.68
19270.0,1.71
19281.0,1.68
19290.0,1.71
19300.0,1.67
19310.0,1.72
19321.0,1.69
19330.0,1.72
19340.0,1.69
19350.0,1.7
19360.0,1.66
19370.0,1.69
19380.0,1.65
19390.0,1.69
19400.0,1.66
19411.0,1.71
19420.0,1.69
19430.0,1.71
19440.0,1.68
19451.0,1.7
19460.0,1.66
19470.0,1.68
19480.0,1.64
19491.0,1.68
19500.0,1.65
19510.0,1.71
19520.0,1.69
19530.0,1.73
19540.0,1.69
19550.0,1.7
19560.0,1.67
19570.0,1.69
19581.0,1.65
19590.0,1.67
19600.0,1.64
19610.0,1.69
19621.0,1.67
19630.0,1.7
19640.0,1.67
19650.0,1.69
19660.0,1.65
19670.0,1.67
19680.0,1.64
19690.0,1.64
19700.0,1.63
19710.0,1.67
19720.0,1.65
19730.0,1.67
19740.0,1.65
19751.0,1.65
19760.0,1.62
19770.0,1.64
19780.0,1.62
19791.0,1.65
19800.0,1.63
19810.0,1.68
19820.0,1.66
19830.0,1.7
19840.0,1.68
19850.0,1.71
19860.0,1.67
19870.0,1.69
19881.0,1.67
19890.0,1.68
19900.0,1.66
19910.0,1.68
19921.0,1.67
19930.0,1.69
19940.0,1.68
19950.0,1.69
19961.0,1.65
19970.0,1.65
19980.0,1.64
19990.0,1.66
20000.0,1.66
20010.0,1.7
20020.0,1.7
20030.0,1.72
20040.0,1.69
20051.0,1.7
20060.0,1.67
20070.0,1.68
20080.0,1.65
20091.0,1.68
20100.0,1.67
20110.0,1.69
20120.0,1.68
20131.0,1.7
20140.0,1.67
20150.0,1.68
20160.0,1.64
20170.0,1.66
20180.0,1.62
20190.0,1.62
20200.0,1.64
20210.0,1.67
20221.0,1.7
20230.0,1.71
20240.0,1.69
20250.0,1.74
20261.0,1.71
20270.0,1.74
20280.0,1.92
20290.0,2.1
20300.0,2.2
20310.0,2.63
20320.0,3.09
20330.0,3.74
20340.0,4.55
20350.0,4.81
20360.0,4.82
20370.0,4.82
20380.0,4.81
20391.0,4.81
20400.0,4.81
20410.0,4.82
20420.0,4.81
20431.0,4.82
20440.0,4.81
20450.0,4.81
20460.0,4.81
20470.0,4.82
20480.0,4.81
20490.0,4.81
20500.0,4.81
20510.0,4.81
20521.0,4.81
20530.0,4.82
20540.0,4.81
20550.0,4.62
20561.0,4.43
20570.0,4.07
20580.0,3.9
20590.0,3.62
20601.0,3.59
20610.0,3.37
20620.0,3.44
20630.0,3.26
20640.0,3.43
20650.0,3.24
20660.0,3.26
20670.0,3.09
20680.0,2.96
20691.0,2.85
20700.0,2.68
20710.0,2.58
20720.0,2.48
20731.0,2.44
20740.0,2.36
20750.0,2.21
20760.0,2.14
20771.0,2.06
20780.0,2.16
20790.0,2.18
20800.0,2.3
20810.0,2.22
20820.0,2.46
20830.0,2.38
20840.0,2.54
20850.0,2.45
20861.0,2.54
20870.0,2.44
20880.0,2.53
20890.0,2.41
20901.0,2.4
20910.0,2.3
20920.0,2.19
20930.0,2.16
20940.0,2.05
20950.0,2.08
20960.0,1.99
20970.0,1.99
20980.0,1.9
20990.0,1.93
21000.0,1.87
21010.0,1.91
21020.0,1.87
21031.0,1.86
21040.0,1.86
21050.0,1.82
21060.0,1.9
21071.0,1.82
21080.0,1.9
21090.0,1.83
21100.0,1.94
21110.0,1.88
21120.0,1.98
21130.0,1.94
21140.0,1.98
21150.0,1.92
21161.0,1.91
21170.0,1.85
21180.0,1.86
21190.0,1.81
21201.0,1.83
21210.0,1.82
21220.0,1.82
21230.0,1.82
21241.0,1.8
21250.0,1.78
21260.0,1.75
21270.0,1.75
21280.0,1.72
21290.0,1.79
21300.0,1.75
21310.0,1.79
21320.0,1.74
21331.0,1.81
21340.0,1.75
21350.0,1.82
21360.0,1.76
21371.0,1.81
21380.0,1.75
21390.0,1.78
21400.0,1.74
21411.0,1.75
21420.0,1.72
21430.0,1.74
21440.0,1.72
21450.0,1.72
21460.0,1.71
21470.0,1.7
21480.0,1.71
21490.0,1.69
21501.0,1.71
21510.0,1.69
21520.0,1.71
21530.0,1.71
21541.0,1.72
21550.0,1.7
21560.0,1.68
21570.0,1.67
21580.0,1.66
21590.0,1.66
21600.0,1.67
21610.0,1.67
21620.0,1.69
21630.0,1.7
21640.0,1.7
21650.0,1.69
21660.0,1.67
21671.0,1.67
21680.0,1.64
21690.0,1.66
21700.0,1.63
21711.0,1.67
21720.0,1.66
21730.0,1.69
21740.0,1.66
21750.0,1.66
21760.0,1.63
21770.0,1.64
21780.0,1.61
21790.0,1.63
21801.0,1.61
21810.0,1.66
21820.0,1.66
21830.0,1.69
21841.0,1.68
21850.0,1.69
21860.0,1.66
21870.0,1.68
21881.0,1.63
21890.0,1.65
21900.0,1.64
21910.0,1.7
21920.0,1.67
21930.0,1.69
21940.0,1.68
21950.0,1.7
21960.0,1.67
21971.0,1.67
21980.0,1.64
21990.0,1.65
22000.0,1.63
22011.0,1.67
22020.0,1.65
22030.0,1.69
22040.0,1.68
22051.0,1.7
22060.0,1.67
22070.0,1.68
22080.0,1.65
22090.0,1.66
22100.0,1.65
22110.0,1.67
22120.0,1.66
22130.0,1.7
22141.0,1.67
22150.0,1.7
22160.0,1.66
22170.0,1.67
22181.0,1.65
22190.0,1.65
22200.0,1.66
22210.0,1.68
22220.0,1.66
22230.0,1.69
22240.0,1.68
22250.0,1.7
22260.0,1.67
22270.0,1.68
22280.0,1.65
22290.0,1.67
22300.0,1.67
22311.0,1.67
22320.0,1.68
22330.0,1.69
22340.0,1.68
22351.0,1.69
22360.0,1.67
22370.0,1.68
22380.0,1.66
22390.0,1.67
22400.0,1.67
22410.0,1.69
22420.0,1.68
22430.0,1.71
22441.0,1.69
22450.0,1.69
22460.0,1.65
22470.0,1.66
22481.0,1.63
22490.0,1.65
22500.0,1.63
22510.0,1.64
22521.0,1.64
22530.0,1.69
22540.0,1.67
22550.0,1.7
22560.0,1.7
22570.0,1.71
22580.0,1.67
22590.0,1.71
22600.0,1.68
22611.0,1.71
22620.0,1.68
22630.0,1.72
22640.0,1.75
22651.0,1.8
22660.0,1.78
22670.0,1.91
22680.0,1.96
22691.0,2.44
22700.0,2.71
22710.0,3.05
22720.0,3.34
22730.0,3.47
22740.0,3.62
22750.0,3.77
22760.0,3.74
22770.0,3.77
22781.0,3.47
22790.0,3.38
22800.0,3.28
22810.0,3.29
22821.0,3.87
22830.0,4.55
22840.0,4.81
22850.0,4.81
22860.0,4.81
22870.0,4.81
22880.0,4.81
22890.0,4.81
22900.0,4.81
22910.0,4.81
22920.0,4.57
22930.0,4.21
22940.0,4.0
22951.0,3.75
22960.0,3.68
22970.0,3.46
22980.0,3.32
22991.0,3.07
23000.0,2.93
23010.0,2.75
23020.0,2.61
23030.0,2.58
23040.0,2.47
23050.0,2.45
23060.0,2.32
23070.0,2.31
23081.0,2.22
23090.0,2.27
23100.0,2.13
23110.0,2.13
23121.0,2.1
23130.0,2.06
23140.0,2.04
23150.0,1.98
23161.0,1.94
23170.0,1.88
23180.0,1.89
23190.0,1.86
23200.0,1.93
23210.0,1.87
23220.0,1.9
23230.0,1.86
23240.0,1.83
23251.0,1.8
23260.0,1.8
23270.0,1.89
23280.0,1.94
23291.0,2.11
23300.0,2.23
23310.0,2.56
23320.0,2.73
23331.0,3.11
23340.0,3.24
23350.0,3.5
23360.0,3.62
23370.0,3.79
23380.0,3.81
23390.0,3.93
23400.0,3.88
23410.0,3.95
23421.0,3.83
23430.0,3.83
23440.0,3.64
23450.0,3.52
23461.0,3.29
23470.0,3.14
23480.0,2.96
23490.0,2.85
23500.0,2.7
23510.0,2.57
23520.0,2.47
23530.0,2.41
23540.0,2.32
23550.0,2.28
23560.0,2.21
23570.0,2.18
23580.0,2.15
23591.0,2.16
23600.0,2.12
23610.0,2.22
23620.0,2.24
23631.0,2.34
23640.0,2.35
23650.0,2.42
23660.0,2.42
23670.0,2.42
23680.0,2.38
23690.0,2.35
23700.0,2.31
23710.0,2.27
23721.0,2.22
23730.0,2.18
23740.0,2.17
23750.0,2.11
23761.0,2.05
23770.0,1.98
23780.0,1.95
23790.0,1.88
23801.0,1.88
23810.0,1.82
23820.0,1.84
23830.0,1.78
23840.0,1.83
23850.0,1.77
23860.0,1.81
23870.0,1.75
23880.0,1.77
23891.0,1.72
23900.0,1.74
23910.0,1.7
23920.0,1.74
23931.0,1.7
23940.0,1.73
23950.0,1.68
23960.0,1.71
23971.0,1.65
23980.0,1.68
23990.0,1.63
24000.0,1.67
24010.0,1.64
24020.0,1.71
24030.0,1.69
24040.0,1.74
24050.0,1.7
24061.0,1.74
24070.0,1.68
24080.0,1.71
24090.0,1.66
24101.0,1.69
24110.0,1.65
24120.0,1.72
24130.0,1.68
24140.0,1.72
24150.0,1.69
24160.0,1.73
24170.0,1.67
24180.0,1.68
24190.0,1.63
24200.0,1.69
24210.0,1.65
24220.0,1.74
24231.0,1.7
24240.0,1.76
24250.0,1.71
24260.0,1.8
24271.0,1.74
24280.0,1.77
24290.0,1.7
24300.0,1.74
24310.0,1.68
24320.0,1.74
24330.0,1.69
24340.0,1.77
24350.0,1.72
24361.0,1.77
24370.0,1.7
24380.0,1.73
24390.0,1.67
24401.0,1.73
24410.0,1.67
24420.0,1.75
24430.0,1.7
24441.0,1.78
24450.0,1.73
24460.0,1.78
24470.0,1.72
24480.0,1.76
24490.0,1.71
24500.0,1.77
24510.0,1.71
24520.0,1.79
24531.0,1.73
24540.0,1.82
24550.0,1.75
24560.0,1.8
24571.0,1.73
24580.0,1.77
24590.0,1.71
24600.0,1.7
24611.0,1.64
24620.0,1.69
24630.0,1.68
24640.0,1.95
24650.0,2.25
24660.0,2.66
24670.0,2.98
24680.0,3.6
24690.0,4.23
24701.0,4.81
24710.0,4.82
24720.0,4.82
24730.0,4.81
24741.0,4.81
24750.0,4.82
24760.0,4.81
24770.0,4.82
24780.0,4.81
24790.0,4.82
24800.0,4.81
24810.0,4.82
24820.0,4.81
24830.0,4.81
24840.0,4.82
24850.0,4.82
24860.0,4.81
24871.0,4.82
24880.0,4.82
24890.0,4.81
24900.0,4.82
24911.0,4.81
24920.0,4.81
24930.0,4.81
24940.0,4.81
24950.0,4.81
24960.0,4.81
24970.0,4.81
24980.0,4.81
24990.0,4.39
25001.0,4.1
25010.0,3.82
25020.0,3.55
25030.0,3.34
25041.0,3.19
25050.0,3.12
25060.0,3.07
25070.0,3.09
25081.0,3.04
25090.0,3.11
25100.0,3.0
25110.0,2.94
25120.0,2.9
25130.0,2.85
25140.0,2.78
25150.0,2.64
25160.0,2.53
25171.0,2.39
25180.0,2.37
25190.0,2.26
25200.0,2.43
25211.0,2.42
25220.0,2.73
25230.0,3.07
25240.0,3.47
25251.0,3.83
25260.0,4.31
25270.0,4.61
25280.0,4.81
25290.0,4.81
25300.0,4.81
25310.0,4.81
25320.0,4.81
25330.0,4.81
25341.0,4.81
25350.0,4.81
25360.0,4.81
25370.0,4.81
25381.0,4.82
25390.0,4.61
25400.0,4.42
25410.0,4.07
25420.0,3.88
25430.0,3.57
25440.0,3.4
25450.0,3.15
25460.0,2.99
25470.0,2.81
25480.0,2.68
25490.0,2.58
25500.0,2.49
25511.0,2.44
25520.0,2.39
25530.0,2.38
25540.0,2.33
25551.0,2.33
25560.0,2.3
25570.0,2.37
25580.0,2.34
25590.0,2.35
25600.0,2.3
25610.0,2.35
25620.0,2.3
25630.0,2.28
25641.0,2.23
25650.0,2.25
25660.0,2.2
25670.0,2.2
25681.0,2.16
25690.0,2.16
25700.0,2.11
25710.0,2.08
25721.0,2.03
25730.0,2.04
25740.0,2.01
25750.0,2.04
25760.0,2.03
25770.0,2.09
25780.0,2.08
25790.0,2.18
25800.0,2.2
25811.0,2.36
25820.0,2.38
25830.0,2.56
25840.0,2.58
25851.0,2.81
25860.0,2.83
25870.0,3.04
25880.0,3.0
25891.0,3.16
25900.0,3.11
25910.0,3.21
25920.0,3.12
25930.0,3.19
25940.0,3.05
25950.0,3.15
25960.0,3.05
25970.0,3.14
25981.0,3.03
25990.0,3.1
26000.0,3.01
26010.0,3.09
26021.0,3.01
26030.0,3.09
26040.0,2.97
26050.0,3.05
26060.0,2.95
26070.0,3.05
26080.0,2.92
26090.0,2.98
26100.0,2.86
26110.0,2.9
26120.0,2.81
26130.0,2.88
26140.0,2.76
26151.0,2.83
26160.0,2.73
26170.0,2.82
26180.0,2.7
26191.0,2.78
26200.0,2.68
26210.0,2.76
26220.0,2.67
26230.0,2.74
26240.0,2.62
26250.0,2.72
26260.0,2.62
26270.0,2.68
26281.0,2.57
26290.0,2.61
26300.0,2.54
26310.0,2.63
26321.0,2.55
26330.0,2.62
26340.0,2.52
26350.0,2.47
26361.0,2.48
26370.0,2.39
26380.0,2.83
26390.0,3.02
26400.0,3.68
26410.0,4.2
26420.0,4.81
26430.0,4.81
26440.0,4.81
26451.0,4.82
26460.0,4.81
26470.0,4.82
26480.0,4.81
26491.0,4.81
26500.0,4.82
26510.0,4.81
26520.0,4.81
26531.0,4.81
26540.0,4.82
26550.0,4.82
26560.0,4.81
26570.0,4.81
26580.0,4.82
26590.0,4.82
26600.0,4.81
26610.0,4.82
26621.0,4.82
26630.0,4.81
26640.0,4.81
26650.0,4.81
26661.0,4.82
26670.0,4.82
26680.0,4.81
26690.0,4.82
26700.0,4.82
26710.0,4.82
26720.0,4.81
26730.0,4.81
26740.0,4.81
26750.0,4.81
26760.0,4.82
26770.0,4.81
26780.0,4.81
26791.0,4.81
26800.0,4.81
26810.0,4.81
26820.0,4.81
26831.0,4.81
26840.0,4.81
26850.0,4.71
26860.0,4.54
26870.0,4.18
26880.0,4.11
26890.0,3.76
26900.0,3.6
26910.0,3.29
26921.0,3.18
26930.0,2.96
26940.0,2.91
26950.0,2.71
26961.0,2.82
26970.0,2.74
26980.0,3.12
26990.0,3.26
27001.0,3.7
27010.0,3.83
27020.0,4.22
27030.0,4.22
27040.0,4.52
27050.0,4.47
27060.0,4.58
27070.0,4.4
27080.0,4.45
27091.0,4.19
27100.0,4.04
27110.0,3.71
27120.0,3.53
27131.0,3.28
27140.0,3.08
27150.0,2.98
27160.0,2.8
27171.0,2.84
27180.0,2.73
27190.0,2.86
27200.0,2.8
27210.0,3.0
27220.0,2.96
27230.0,3.2
27240.0,3.16
27250.0,3.42
27261.0,3.38
27270.0,3.63
27280.0,3.58
27290.0,3.79
27301.0,3.72
27310.0,3.91
27320.0,3.83
27330.0,4.01
27340.0,3.9
27350.0,4.1
27360.0,4.01
27370.0,4.17
27380.0,4.05
27390.0,4.19
27400.0,4.06
27410.0,4.2
27420.0,4.08
27431.0,4.25
27440.0,4.14
27450.0,4.31
27460.0,4.24
27471.0,4.41
27480.0,4.37
27490.0,4.55
27500.0,4.51
27510.0,4.74
27520.0,4.69
27530.0,4.81
27540.0,4.81
27550.0,4.81
27561.0,4.81
27570.0,4.81
27580.0,4.81
27590.0,4.81
27601.0,4.81
27610.0,4.81
27620.0,4.81
27630.0,4.81
27641.0,4.81
27650.0,4.81
27660.0,4.81
27670.0,4.81
27680.0,4.81
27690.0,4.81
27700.0,4.81
27710.0,4.81
27720.0,4.81
27731.0,4.81
27740.0,4.81
27750.0,4.81
27760.0,4.81
27771.0,4.81
27780.0,4.81
27790.0,4.81
27800.0,4.81
27811.0,4.81
27820.0,4.81
27830.0,4.81
27840.0,4.81
27850.0,4.81
27860.0,4.81
27870.0,4.81
27880.0,4.81
27890.0,4.81
27901.0,4.81
27910.0,4.81
27920.0,4.81
27930.0,4.81
27941.0,4.81
27950.0,4.81
27960.0,4.81
27970.0,4.81
27980.0,4.81
27990.0,4.81
28000.0,4.81
28010.0,4.81
28020.0,4.81
28030.0,4.81
28040.0,4.81
28050.0,4.81
28060.0,4.81
28071.0,4.81
28080.0,4.81
28090.0,4.81
28100.0,4.81
28111.0,4.81
28120.0,4.61
28130.0,4.31
28140.0,3.99
28150.0,3.74
28160.0,3.57
28170.0,3.37
28180.0,3.26
28190.0,3.28
28201.0,3.81
28210.0,4.1
28220.0,4.75
28230.0,4.81
28241.0,4.81
28250.0,4.82
28260.0,4.81
28270.0,4.81
28281.0,4.81
28290.0,4.82
28300.0,4.81
28310.0,4.81
28320.0,4.81
28330.0,4.81
28340.0,4.81
28350.0,4.81
28360.0,4.82
28371.0,4.81
28380.0,4.81
28390.0,4.82
28400.0,4.81
28411.0,4.82
28420.0,4.81
28430.0,4.81
28440.0,4.81
28451.0,4.81
28460.0,4.82
28470.0,4.82
28480.0,4.81
28490.0,4.81
28500.0,4.82
28510.0,4.82
28520.0,4.82
28530.0,4.82
28541.0,4.81
28550.0,4.81
28560.0,4.81
28570.0,4.81
28581.0,4.52
28590.0,4.16
28600.0,3.93
28610.0,3.64
28620.0,3.42
28630.0,3.19
28640.0,3.02
28650.0,2.83
28660.0,2.66
28670.0,2.59
28680.0,2.44
28690.0,2.4
28700.0,2.28
28711.0,2.23
28720.0,2.15
28730.0,2.16
28740.0,2.09
28751.0,2.04
28760.0,2.0
28770.0,1.95
28780.0,1.95
28790.0,1.92
28800.0,1.95
28810.0,1.92
28820.0,1.89
28830.0,1.86
28841.0,1.83
28850.0,1.81
28860.0,1.81
28870.0,1.8
28881.0,1.78
28890.0,1.79
28900.0,1.77
28910.0,1.81
28921.0,1.78
28930.0,1.86
28940.0,1.83
28950.0,1.94
28960.0,1.91
28970.0,2.0
28980.0,2.05
28990.0,2.22
29000.0,2.25
29011.0,2.39
29020.0,2.44
29030.0,2.6
29040.0,2.6
29051.0,2.73
29060.0,2.71
29070.0,2.79
29080.0,2.8
29091.0,2.87
29100.0,2.85
29110.0,2.95
29120.0,2.89
29130.0,2.97
29140.0,2.9
29150.0,2.96
29160.0,2.89
29170.0,2.92
29181.0,2.89
29190.0,2.96
29200.0,2.94
29210.0,2.96
29221.0,2.93
29230.0,3.1
29240.0,3.12
29250.0,3.27
29260.0,3.32
29270.0,3.43
29280.0,3.48
29290.0,3.63
29300.0,3.71
29310.0,3.78
29320.0,3.74
29330.0,3.78
29340.0,3.68
29351.0,3.7
29360.0,3.58
29370.0,3.55
29380.0,3.45
29391.0,3.44
29400.0,3.35
29410.0,3.33
29420.0,3.27
29430.0,3.27
29440.0,3.19
29450.0,3.21
29460.0,3.14
29470.0,3.16
29481.0,3.11
29490.0,3.1
29500.0,3.05
29510.0,3.04
29521.0,2.98
29530.0,2.97
29540.0,2.92
29550.0,2.92
29561.0,2.87
29570.0,2.88
29580.0,2.84
29590.0,2.84
29600.0,2.81
29610.0,2.83
29620.0,2.78
29630.0,2.75
29640.0,2.72
29651.0,2.72
29660.0,2.67
29670.0,2.66
29680.0,2.61
29691.0,2.62
29700.0,2.59
29710.0,2.61
29720.0,2.57
29731.0,2.58
29740.0,2.54
29750.0,2.58
29760.0,2.55
29770.0,2.56
29780.0,2.53
29790.0,2.52
29800.0,2.51
29810.0,2.49
29821.0,2.44
29830.0,2.44
29840.0,2.4
29850.0,2.42
29861.0,2.39
29870.0,2.4
29880.0,2.38
29890.0,2.37
29900.0,2.37
29910.0,2.38
29920.0,2.33
29930.0,2.35
29940.0,2.31
29950.0,2.34
29960.0,2.3
29970.0,2.32
29980.0,2.32
29991.0,2.35
30000.0,2.36
30010.0,2.35
30020.0,2.31
30031.0,2.27
30040.0,2.22
30050.0,2.23
30060.0,2.12
30070.0,2.16
30080.0,2.03
30090.0,2.05
30100.0,1.96
30110.0,1.99
30121.0,1.9
30130.0,1.97
30140.0,1.99
30150.0,2.14
30161.0,2.24
30170.0,2.49
30180.0,2.61
30190.0,2.87
30201.0,2.93
30210.0,3.16
30220.0,3.26
30230.0,3.19
30240.0,3.45
30250.0,3.83
30260.0,4.08
30270.0,4.13
30280.0,4.33
30291.0,4.74
30300.0,4.81
30310.0,4.81
30320.0,4.81
30331.0,4.81
30340.0,4.57
30350.0,4.17
30360.0,3.87
30371.0,3.65
30380.0,3.52
30390.0,3.61
30400.0,3.78
30410.0,3.75
30420.0,4.21
30430.0,4.21
30440.0,4.29
30450.0,4.23
30461.0,4.4
30470.0,4.5
30480.0,4.76
30490.0,4.81
30501.0,4.81
30510.0,4.81
30520.0,4.81
30530.0,4.81
30540.0,4.81
30550.0,4.81
30560.0,4.81
30570.0,4.81
30580.0,4.81
30590.0,4.81
30600.0,4.81
30610.0,4.81
30620.0,4.81
30631.0,4.81
30640.0,4.81
30650.0,4.81
30660.0,4.81
30671.0,4.81
30680.0,4.81
30690.0,4.68
30700.0,4.57
30710.0,4.35
30720.0,4.25
30730.0,4.03
30740.0,3.94
30750.0,3.75
30761.0,3.5
30770.0,3.36
30780.0,3.13
30790.0,3.17
30801.0,3.24
30810.0,3.55
30820.0,3.78
30830.0,4.27
30841.0,4.69
30850.0,4.81
30860.0,4.81
30870.0,4.81
30880.0,4.81
30890.0,4.81
30900.0,4.81
30910.0,4.81
30920.0,4.81
30931.0,4.81
30940.0,4.81
30950.0,4.81
30960.0,4.81
30971.0,4.81
30980.0,4.81
30990.0,4.82
31000.0,4.81
31011.0,4.81
31020.0,4.81
31030.0,4.63
31040.0,4.27
31050.0,4.06
31060.0,3.75
31070.0,3.57
31080.0,3.3
31090.0,3.2
31101.0,2.97
31110.0,2.88
31120.0,2.7
31130.0,2.63
31141.0,2.45
31150.0,2.43
31160.0,2.31
31170.0,2.36
31180.0,2.24
31190.0,2.32
31200.0,2.19
31210.0,2.31
31220.0,2.21
31230.0,2.25
31240.0,2.16
31250.0,2.18
31260.0,2.07
31271.0,2.09
31280.0,2.03
31290.0,2.01
31300.0,1.97
31311.0,1.92
31320.0,1.94
31330.0,1.9
31340.0,1.96
31350.0,1.93
31360.0,2.03
31370.0,2.01
31380.0,2.11
31390.0,2.08
31401.0,2.17
31410.0,2.12
31420.0,2.16
31430.0,2.1
31441.0,2.13
31450.0,2.07
31460.0,2.16
31470.0,2.1
31481.0,2.28
31490.0,2.24
31500.0,2.24
31510.0,2.16
31520.0,2.08
31530.0,2.04
31540.0,2.03
31550.0,2.01
31560.0,1.93
31571.0,1.97
31580.0,1.89
31590.0,1.96
31600.0,1.9
31611.0,1.92
31620.0,1.85
31630.0,1.92
31640.0,1.84
31651.0,1.9
31660.0,1.84
31670.0,1.88
31680.0,1.82
31690.0,1.87
31700.0,1.84
31710.0,1.85
31720.0,1.8
31730.0,1.8
31741.0,1.77
31750.0,1.76
31760.0,1.74
31770.0,1.74
31781.0,1.72
31790.0,1.7
31800.0,1.72
31810.0,1.69
31820.0,1.67
31830.0,1.68
31840.0,1.65
31850.0,1.66
31860.0,1.65
31870.0,1.64
31880.0,1.63
31890.0,1.65
31900.0,1.65
31911.0,1.64
31920.0,1.63
31930.0,1.66
31940.0,1.65
31951.0,1.72
31960.0,1.67
31970.0,1.79
31980.0,1.77
31990.0,1.88
32000.0,1.9
32010.0,2.07
32020.0,2.13
32030.0,2.63
32041.0,2.95
32050.0,3.55
32060.0,3.88
32070.0,4.5
32081.0,4.81
32090.0,4.81
32100.0,4.81
32110.0,4.81
32121.0,4.81
32130.0,4.81
32140.0,4.81
32150.0,4.81
32160.0,4.81
32170.0,4.81
32180.0,4.81
32190.0,4.81
32200.0,4.81
32211.0,4.81
32220.0,4.81
32230.0,4.82
32240.0,4.81
32251.0,4.81
32260.0,4.81
32270.0,4.81
32280.0,4.81
32291.0,4.81
32300.0,4.81
32310.0,4.81
32320.0,4.81
32330.0,4.81
32340.0,4.81
32350.0,4.81
32360.0,4.81
32370.0,4.81
32381.0,4.81
32390.0,4.81
32400.0,4.81
32410.0,4.81
32421.0,4.81
32430.0,4.81
32440.0,4.81
32450.0,4.81
32460.0,4.81
32470.0,4.81
32480.0,4.81
32490.0,4.81
32500.0,4.81
32510.0,4.81
32520.0,4.81
32530.0,4.81
32540.0,4.81
32551.0,4.81
32560.0,4.81
32570.0,4.81
32580.0,4.81
32591.0,4.81
32600.0,4.81
32610.0,4.81
32620.0,4.81
32630.0,4.81
32640.0,4.81
32650.0,4.81
32660.0,4.81
32670.0,4.81
32681.0,4.81
32690.0,4.81
32700.0,4.52
32710.0,4.19
32721.0,4.04
32730.0,3.8
32740.0,3.76
32750.0,3.56
32761.0,3.66
32770.0,3.51
32780.0,3.65
32790.0,3.49
32800.0,3.62
32810.0,3.47
32820.0,3.53
32830.0,3.36
32840.0,3.32
32851.0,3.09
32860.0,2.96
32870.0,2.77
32880.0,2.62
32891.0,2.57
32900.0,2.44
32910.0,2.56
32920.0,2.44
32931.0,2.62
32940.0,2.59
32950.0,2.74
32960.0,2.65
32970.0,2.85
32980.0,2.84
32990.0,3.08
33000.0,3.05
33010.0,3.27
33021.0,3.2
33030.0,3.35
33040.0,3.23
33050.0,3.32
33061.0,3.12
33070.0,3.04
33080.0,2.83
33090.0,2.7
33100.0,2.6
33110.0,2.46
33120.0,2.49
33130.0,2.39
33140.0,2.49
33150.0,2.45
33160.0,2.58
33170.0,2.48
33180.0,2.55
33191.0,2.4
33200.0,2.31
33210.0,2.33
33220.0,2.24
33231.0,2.3
33240.0,2.25
33250.0,2.4
33260.0,2.39
33270.0,2.61
33280.0,2.57
33290.0,2.8
33300.0,2.77
33310.0,2.94
33321.0,2.89
33330.0,3.04
33340.0,3.0
33350.0,3.09
33361.0,3.02
33370.0,3.16
33380.0,3.06
33390.0,3.21
33401.0,3.12
33410.0,3.25
33420.0,3.16
33430.0,3.26
33440.0,3.19
33450.0,3.3
33460.0,3.21
33470.0,3.33
33480.0,3.25
33491.0,3.35
33500.0,3.25
33510.0,3.37
33520.0,3.26
33531.0,3.32
33540.0,3.24
33550.0,3.27
33560.0,3.14
33571.0,3.21
33580.0,3.09
33590.0,3.18
33600.0,3.05
33610.0,3.08
33620.0,2.99
33630.0,3.03
33640.0,2.93
33650.0,2.98
33661.0,2.87
33670.0,2.96
33680.0,2.85
33690.0,2.95
33701.0,2.88
33710.0,2.95
33720.0,2.87
33730.0,2.92
33740.0,2.83
33750.0,2.88
33760.0,2.81
33770.0,2.8
33780.0,2.73
33790.0,2.84
33800.0,2.83
33810.0,2.95
33820.0,2.93
33831.0,3.1
33840.0,3.02
33850.0,3.23
33860.0,3.27
33871.0,3.55
33880.0,3.68
33890.0,4.06
33900.0,4.3
33910.0,4.68
33920.0,4.81
33930.0,4.81
33940.0,4.81
33950.0,4.81
33961.0,4.81
33970.0,4.81
33980.0,4.81
33990.0,4.81
34001.0,4.82
34010.0,4.81
34020.0,4.81
34030.0,4.81
34041.0,4.82
34050.0,4.81
34060.0,4.82
34070.0,4.81
34080.0,4.81
34090.0,4.82
34100.0,4.81
34110.0,4.81
34120.0,4.81
34131.0,4.81
34140.0,4.81
34150.0,4.82
34160.0,4.82
34171.0,4.82
34180.0,4.81
34190.0,4.82
34200.0,4.81
34211.0,4.81
34220.0,4.81
34230.0,4.81
34240.0,4.82
34250.0,4.81
34260.0,4.81
34270.0,4.81
34280.0,4.81
34290.0,4.76
34301.0,4.5
34310.0,4.22
34320.0,3.97
34330.0,3.67
34341.0,3.47
34350.0,3.25
34360.0,3.15
34370.0,2.95
34380.0,2.76
34390.0,2.6
34400.0,2.52
34410.0,2.41
34420.0,2.32
34430.0,2.21
34440.0,2.2
34450.0,2.11
34460.0,2.07
34471.0,2.03
34480.0,2.02
34490.0,2.05
34500.0,2.12
34511.0,2.22
34520.0,2.35
34530.0,2.73
34540.0,2.95
34550.0,3.27
34560.0,3.51
34570.0,3.82
34580.0,4.01
34590.0,4.16
34601.0,4.22
34610.0,4.23
34620.0,4.16
34630.0,4.02
34641.0,3.87
34650.0,3.69
34660.0,3.49
34670.0,3.29
34681.0,3.11
34690.0,2.88
34700.0,2.76
34710.0,2.6
34720.0,2.56
34730.0,2.5
34740.0,2.46
34750.0,2.41
34760.0,2.44
34771.0,2.43
34780.0,2.48
34790.0,2.56
34800.0,2.68
34811.0,2.76
34820.0,2.86
34830.0,2.98
34840.0,3.14
34851.0,3.28
34860.0,3.43
34870.0,3.57
34880.0,3.68
34890.0,3.77
34900.0,3.86
34910.0,3.95
34920.0,4.0
34930.0,4.07
34941.0,4.12
34950.0,4.17
34960.0,4.21
34970.0,4.26
34981.0,4.27
34990.0,4.25
35000.0,4.2
35010.0,4.15
35020.0,4.07
35030.0,3.96
35040.0,3.86
35050.0,3.72
35060.0,3.64
35070.0,3.5
35080.0,3.38
35090.0,3.24
35100.0,3.15
35111.0,3.05
35120.0,3.0
35130.0,2.93
35140.0,2.87
35151.0,2.82
35160.0,2.79
35170.0,2.77
35180.0,2.78
35190.0,2.75
35200.0,2.75
35210.0,2.74
35220.0,2.71
35230.0,2.71
35241.0,2.67
35250.0,2.65
35260.0,2.62
35270.0,2.58
35281.0,2.56
35290.0,2.51
35300.0,2.49
35310.0,2.46
35321.0,2.43
35330.0,2.41
35340.0,2.37
35350.0,2.33
35360.0,2.31
35370.0,2.28
35380.0,2.27
35390.0,2.22
35400.0,2.22
35411.0,2.19
35420.0,2.19
35430.0,2.17
35440.0,2.16
35451.0,2.12
35460.0,2.1
35470.0,2.06
35480.0,2.04
35491.0,2.02
35500.0,2.03
35510.0,2.02
35520.0,2.03
35530.0,2.01
35540.0,2.02
35550.0,2.0
35560.0,2.0
35570.0,1.96
35581.0,1.96
35590.0,1.93
35600.0,1.93
35610.0,1.89
35621.0,1.89
35630.0,1.86
35640.0,1.86
35650.0,1.82
35660.0,1.81
35670.0,1.74
35680.0,1.76
35690.0,1.72
35700.0,1.75
35710.0,1.68
35720.0,1.69
35730.0,1.69
35740.0,1.68
35751.0,1.64
35760.0,1.65
35770.0,1.77
35780.0,1.83
35791.0,1.77
35800.0,1.86
35810.0,1.93
35820.0,2.56
35830.0,3.07
35840.0,3.52
35850.0,4.14
35860.0,4.81
35870.0,4.81
35881.0,4.82
35890.0,4.81
35900.0,4.82
35910.0,4.81
35921.0,4.82
35930.0,4.81
35940.0,4.82
35950.0,4.81
35961.0,4.82
35970.0,4.81
35980.0,4.81
35990.0,4.81
36000.0,4.82
36010.0,4.81
36020.0,4.81
36030.0,4.81
36040.0,4.81
36051.0,4.81
36060.0,4.81
36070.0,4.81
36080.0,4.81
36091.0,4.81
36100.0,4.81
36110.0,4.48
36120.0,4.18
36131.0,3.85
36140.0,3.63
36150.0,3.35
36160.0,3.23
36170.0,2.97
36180.0,2.87
36190.0,2.71
36200.0,2.66
36210.0,2.48
36221.0,2.43
36230.0,2.3
36240.0,2.32
36250.0,2.17
36261.0,2.16
36270.0,2.04
36280.0,2.1
36290.0,1.99
36300.0,2.02
36310.0,1.94
36320.0,2.07
36330.0,2.01
36340.0,2.06
36350.0,1.99
36360.0,1.97
36370.0,2.06
36380.0,2.21
36391.0,2.14
36400.0,2.1
36410.0,2.07
36420.0,1.98
36431.0,2.01
36440.0,1.97
36450.0,1.91
36460.0,1.95
36470.0,1.89
36480.0,1.94
36490.0,1.92
36500.0,2.09
36510.0,2.06
36521.0,2.35
36530.0,2.35
36540.0,2.63
36550.0,2.72
36561.0,3.01
36570.0,3.05
36580.0,3.27
36590.0,3.21
36601.0,3.34
36610.0,3.18
36620.0,3.25
36630.0,3.09
36640.0,3.15
36650.0,2.96
36660.0,2.98
36670.0,2.81
36680.0,2.81
36691.0,2.64
36700.0,2.65
36710.0,2.48
36720.0,2.5
36731.0,2.38
36740.0,2.36
36750.0,2.23
36760.0,2.25
36771.0,2.13
36780.0,2.12
36790.0,2.02
36800.0,1.98
36810.0,1.93
36820.0,1.91
36830.0,1.87
36840.0,1.84
36850.0,1.84
36861.0,1.79
36870.0,1.77
36880.0,1.74
36890.0,1.74
36901.0,1.71
36910.0,1.71
36920.0,1.72
36930.0,1.69
36940.0,1.73
36950.0,1.7
36960.0,1.7
36970.0,1.67
36980.0,1.69
36990.0,1.65
37000.0,1.66
37010.0,1.61
37020.0,1.66
37031.0,1.64
37040.0,1.66
37050.0,1.64
37060.0,1.64
37071.0,1.64
37080.0,1.63
37090.0,1.66
37100.0,1.62
37110.0,1.68
37120.0,1.65
37130.0,1.73
37140.0,1.7
37150.0,1.76
37161.0,1.72
37170.0,1.76
37180.0,1.74
37190.0,1.77
37201.0,1.73
37210.0,1.76
37220.0,1.71
37230.0,1.75
37241.0,1.73
37250.0,1.75
37260.0,1.73
37270.0,1.74
37280.0,1.72
37290.0,1.74
37300.0,1.72
37310.0,1.72
37320.0,1.69
37331.0,1.71
37340.0,1.68
37350.0,1.69
37360.0,1.65
37371.0,1.66
37380.0,1.64
37390.0,1.66
37400.0,1.63
37411.0,1.66
37420.0,1.64
37430.0,1.7
37440.0,1.67
37450.0,1.71
37460.0,1.68
37470.0,1.71
37480.0,1.67
37490.0,1.71
37501.0,1.66
37510.0,1.71
37520.0,1.69
37530.0,1.72
37541.0,1.7
37550.0,1.72
37560.0,1.69
37570.0,1.69
37580.0,1.65
37590.0,1.64
37600.0,1.63
37610.0,1.63
37620.0,1.64
37630.0,1.64
37640.0,1.65
37650.0,1.63
37660.0,1.64
37671.0,1.63
37680.0,1.62
37690.0,1.62
37700.0,1.58
37711.0,1.57
37720.0,1.55
37730.0,1.57
37740.0,1.59
37750.0,1.58
37760.0,1.58
37770.0,1.59
37780.0,1.6
37790.0,1.6
37801.0,1.56
37810.0,1.64
37820.0,1.71
37830.0,1.78
37841.0,1.86
37850.0,1.79
37860.0,1.91
37870.0,1.88
37881.0,2.15
37890.0,2.17
37900.0,2.51
37910.0,2.81
37920.0,3.42
37930.0,3.81
37940.0,4.6
37950.0,4.81
37960.0,4.81
37971.0,4.82
37980.0,4.81
37990.0,4.82
38000.0,4.81
38011.0,4.81
38020.0,4.81
38030.0,4.81
38040.0,4.81
38051.0,4.81
38060.0,4.82
38070.0,4.81
38080.0,4.81
38090.0,4.81
38100.0,4.81
38110.0,4.82
38120.0,4.82
38130.0,4.82
38141.0,4.81
38150.0,4.81
38160.0,4.81
38170.0,4.57
38181.0,4.21
38190.0,3.94
38200.0,3.72
38210.0,3.82
38220.0,3.79
38230.0,4.13
38240.0,4.14
38250.0,4.42
38260.0,4.47
38270.0,4.62
38280.0,4.55
38290.0,4.62
38300.0,4.46
38311.0,4.43
38320.0,4.15
38330.0,4.1
38340.0,3.85
38351.0,3.83
38360.0,3.63
38370.0,3.67
38380.0,3.51
38390.0,3.44
38400.0,3.25
38410.0,3.27
38420.0,3.12
38430.0,3.22
38441.0,3.05
38450.0,3.11
38460.0,3.04
38470.0,3.1
38481.0,3.11
38490.0,3.25
38500.0,3.08
38510.0,3.07
38521.0,2.87
38530.0,2.81
38540.0,2.66
38550.0,2.49
38560.0,2.4
38570.0,2.27
38580.0,2.34
38590.0,2.34
38600.0,2.59
38611.0,2.67
38620.0,2.92
38630.0,2.97
38640.0,3.18
38651.0,3.16
38660.0,3.25
38670.0,3.1
38680.0,3.17
38691.0,3.02
38700.0,3.04
38710.0,2.87
38720.0,2.85
38730.0,2.72
38740.0,2.68
38750.0,2.54
38760.0,2.5
38770.0,2.35
38781.0,2.32
38790.0,2.21
38800.0,2.17
38810.0,2.08
38821.0,2.04
38830.0,1.99
38840.0,1.97
38850.0,1.98
38860.0,1.9
38870.0,1.87
38880.0,1.82
38890.0,1.81
38900.0,1.76
38910.0,1.78
38920.0,1.74
38930.0,1.82
38940.0,1.8
38951.0,1.87
38960.0,1.86
38970.0,1.91
38980.0,1.91
38991.0,1.97
39000.0,1.93
39010.0,2.01
39020.0,1.96
39030.0,2.08
39040.0,2.04
39050.0,2.1
39060.0,2.07
39070.0,2.14
39081.0,2.12
39090.0,2.23
39100.0,2.26
39110.0,2.38
39121.0,2.43
39130.0,2.61
39140.0,2.63
39150.0,2.8
39161.0,2.92
39170.0,3.25
39180.0,3.47
39190.0,3.82
39200.0,4.11
39210.0,4.5
39220.0,4.78
39230.0,4.81
39240.0,4.81
39251.0,4.81
39260.0,4.81
39270.0,4.81
39280.0,4.81
39291.0,4.81
39300.0,4.81
39310.0,4.81
39320.0,4.81
39331.0,4.81
39340.0,4.81
39350.0,4.81
39360.0,4.81
39370.0,4.81
39381.0,4.81
39390.0,4.81
39400.0,4.81
39410.0,4.81
39421.0,4.81
39430.0,4.81
39440.0,4.81
39450.0,4.81
39461.0,4.81
39470.0,4.81
39480.0,4.81
39490.0,4.81
39500.0,4.81
39510.0,4.81
39520.0,4.81
39530.0,4.81
39540.0,4.81
39551.0,4.81
39560.0,4.81
39570.0,4.81
39580.0,4.81
39591.0,4.81
39600.0,4.81
39610.0,4.81
39620.0,4.81
39631.0,4.81
39640.0,4.81
39650.0,4.81
39660.0,4.81
39670.0,4.81
39680.0,4.81
39690.0,4.81
39700.0,4.81
39710.0,4.81
39721.0,4.81
39730.0,4.81
39740.0,4.81
39750.0,4.81
39761.0,4.81
39770.0,4.81
39780.0,4.81
39790.0,4.81
39801.0,4.81
39811.0,4.81
39820.0,4.81
39830.0,4.81
39840.0,4.81
39851.0,4.81
39860.0,4.81
39870.0,4.81
39880.0,4.81
39891.0,4.81
39900.0,4.81
39910.0,4.81
39920.0,4.81
39931.0,4.81
39940.0,4.81
39950.0,4.81
39960.0,4.81
39971.0,4.81
39981.0,4.81
39990.0,4.81
40000.0,4.81
40010.0,4.81
40021.0,4.81
40030.0,4.82
40040.0,4.81
40050.0,4.82
40061.0,4.81
40070.0,4.81
40080.0,4.81
40090.0,4.81
40101.0,4.82
40110.0,4.81
40120.0,4.81
40130.0,4.81
40140.0,4.81
40151.0,4.82
40160.0,4.82
40170.0,4.82
40180.0,4.81
40191.0,4.82
40200.0,4.81
40210.0,4.82
40220.0,4.82
40231.0,4.81
40240.0,4.82
40250.0,4.81
40260.0,4.82
40271.0,4.81
40281.0,4.81
40290.0,4.81
40300.0,4.81
40310.0,4.81
40321.0,4.81
40330.0,4.81
40340.0,4.81
40350.0,4.82
40361.0,4.82
40370.0,4.82
40380.0,4.82
40390.0,4.81
40401.0,4.82
40411.0,4.82
40420.0,4.82
40430.0,4.81
40441.0,4.82
40451.0,4.81
40460.0,4.82
40470.0,4.81
40480.0,4.81
40491.0,4.81
40501.0,4.82
40510.0,4.81
40520.0,4.81
40531.0,4.81
40541.0,4.82
40550.0,4.81
40560.0,4.82
40571.0,4.82
40581.0,4.81
40590.0,4.81
40600.0,4.82
40611.0,4.81
40621.0,4.81
40630.0,4.81
40640.0,4.82
40650.0,4.81
40661.0,4.82
40671.0,4.81
40680.0,4.81
40690.0,4.81
40701.0,4.81
40711.0,4.82
40720.0,4.81
40730.0,4.81
40741.0,4.81
40751.0,4.82
40760.0,4.82
40770.0,4.81
40780.0,4.82
40791.0,4.81
40800.0,4.81
40810.0,4.82
40820.0,4.81
40831.0,4.82
40841.0,4.81
40850.0,4.81
40860.0,4.81
40871.0,4.81
40881.0,4.81
40890.0,4.82
40900.0,4.81
40911.0,4.81
40921.0,4.81
40930.0,4.81
40940.0,4.81
40950.0,4.81
40961.0,4.81
40970.0,4.81
40980.0,4.82
40990.0,4.81
41001.0,4.81
41011.0,4.81
41020.0,4.49
41030.0,4.26
41041.0,3.92
41051.0,3.71
41060.0,3.45
41070.0,3.26
41081.0,3.1
41091.0,2.91
41100.0,2.83
41110.0,2.7
41120.0,2.66
41131.0,2.55
41141.0,2.61
41150.0,2.55
41160.0,2.63
41171.0,2.54
41181.0,2.64
41190.0,2.58
41200.0,2.69
41211.0,2.62
41221.0,2.67
41230.0,2.6
41240.0,2.68
41251.0,2.62
41261.0,2.77
41270.0,2.69
41280.0,2.8
41290.0,2.67
41301.0,2.57
41311.0,2.48
41320.0,2.4
41330.0,2.3
41341.0,2.22
41351.0,2.17
41360.0,2.12
41370.0,2.06
41381.0,2.05
41391.0,1.98
41400.0,1.96
41410.0,1.9
41420.0,1.84
41431.0,1.8
41440.0,1.78
41450.0,1.76
41460.0,1.74
41471.0,1.74
41481.0,1.72
41490.0,1.71
41500.0,1.68
41511.0,1.67
41521.0,1.65
41530.0,1.66
41540.0,1.62
41551.0,1.61
41561.0,1.59
41570.0,1.66
41580.0,1.61
41590.0,1.74
41601.0,1.7
41611.0,1.82
41620.0,1.76
41630.0,1.85
41641.0,1.79
41651.0,1.85
41660.0,1.78
41670.0,1.84
41681.0,1.76
41691.0,1.78
41700.0,1.72
41710.0,1.71
41721.0,1.71
41731.0,1.7
41740.0,1.72
41750.0,1.71
41760.0,1.68
41771.0,1.7
41781.0,1.68
41790.0,1.66
41800.0,1.65
41811.0,1.63
41821.0,1.72
41830.0,1.7
41840.0,1.86
41851.0,1.8
41861.0,1.97
41870.0,1.94
41880.0,2.09
41891.0,2.07
41901.0,2.22
41910.0,2.22
41920.0,2.37
41930.0,2.32
41941.0,2.51
41951.0,2.39
41960.0,2.54
41970.0,2.42
41981.0,2.35
41991.0,2.56
42000.0,2.83
42010.0,4.03
42021.0,4.81
42031.0,4.82
42040.0,4.81
42050.0,4.81
42060.0,4.82
42071.0,4.82
42081.0,4.82
42090.0,4.81
42100.0,4.81
42111.0,4.81
42121.0,4.82
42130.0,4.81
42140.0,4.81
42151.0,4.82
42161.0,4.81
42170.0,4.81
42180.0,4.81
42191.0,4.81
42201.0,4.71
42210.0,4.34
42220.0,4.26
42230.0,4.04
42241.0,4.14
42251.0,3.93
42260.0,3.99
42270.0,3.78
42281.0,3.81
42291.0,3.67
42300.0,3.72
42310.0,3.53
42321.0,3.41
42331.0,3.15
42340.0,2.98
42350.0,2.8
42361.0,2.81
42371.0,2.76
42380.0,2.59
42390.0,2.5
42400.0,2.35
42411.0,2.3
42421.0,2.23
42430.0,2.23
42440.0,2.11
42451.0,2.14
42461.0,2.07
42470.0,2.07
42480.0,2.0
42491.0,1.97
42501.0,1.92
42510.0,1.88
42520.0,1.89
42531.0,1.83
42541.0,1.81
42551.0,1.79
42560.0,1.78
42570.0,1.83
42581.0,1.82
42591.0,2.06
42600.0,2.15
42610.0,2.53
42621.0,2.74
42631.0,3.09
42640.0,3.25
42650.0,3.47
42661.0,3.46
42671.0,3.68
42680.0,3.53
42690.0,3.66
42700.0,3.5
42711.0,3.54
42721.0,3.37
42730.0,3.42
42740.0,3.19
42751.0,3.19
42761.0,2.99
42770.0,2.94
42780.0,2.77
42791.0,2.71
42801.0,2.54
42810.0,2.46
42820.0,2.31
42831.0,2.26
42841.0,2.16
42850.0,2.12
42860.0,2.03
42870.0,2.04
42881.0,1.96
42891.0,1.96
42900.0,1.88
42910.0,1.86
42921.0,1.79
42931.0,1.8
42940.0,1.75
42950.0,1.76
42961.0,1.73
42971.0,1.75
42980.0,1.76
42990.0,1.76
43001.0,1.71
43011.0,1.68
43020.0,1.68
43030.0,1.66
43040.0,1.69
43051.0,1.64
43061.0,1.68
43070.0,1.67
43080.0,1.64
43091.0,1.66
43101.0,1.64
43110.0,1.64
43120.0,1.61
43131.0,1.59
43141.0,1.74
43150.0,1.73
43160.0,1.97
43171.0,2.1
43181.0,2.56
43191.0,2.83
43200.0,3.25
43210.0,3.59
43221.0,4.01
43231.0,4.24
43240.0,4.57
43250.0,4.73
43261.0,4.81
43271.0,4.81
43280.0,4.81
43290.0,4.81
43301.0,4.81
43311.0,4.81
43320.0,4.81
43330.0,4.81
43340.0,4.81
43351.0,4.81
43361.0,4.81
43370.0,4.81
43380.0,4.81
43391.0,4.81
43401.0,4.81
43410.0,4.81
43420.0,4.81
43431.0,4.81
43441.0,4.81
43450.0,4.81
43460.0,4.8
43471.0,4.62
43481.0,4.59
43490.0,4.48
43500.0,4.48
43510.0,4.4
43521.0,4.42
43531.0,4.29
43540.0,4.33
43550.0,4.21
43561.0,4.25
43571.0,4.21
43580.0,4.23
43590.0,4.11
43601.0,4.14
43611.0,4.07
43620.0,4.1
43630.0,3.99
43641.0,4.02
43651.0,3.91
43660.0,3.92
43670.0,3.77
43680.0,3.74
43691.0,3.64
43701.0,3.61
43710.0,3.5
43720.0,3.47
43731.0,3.34
43741.0,3.31
43750.0,3.16
43760.0,3.13
43771.0,3.03
43781.0,2.98
43790.0,2.89
43800.0,2.84
43811.0,2.75
43821.0,2.7
43831.0,2.6
43840.0,2.61
43850.0,2.5
43861.0,2.49
43871.0,2.4
43880.0,2.36
43890.0,2.32
43901.0,2.32
43911.0,2.29
43920.0,2.32
43930.0,2.22
43941.0,2.31
43951.0,2.33
43960.0,2.32
43970.0,2.33
43980.0,2.3
43991.0,2.27
44001.0,2.34
44010.0,2.27
44020.0,2.26
44031.0,2.47
44041.0,2.83
44050.0,3.35
44060.0,3.7
44071.0,4.1
44081.0,4.47
44090.0,4.79
44100.0,4.81
44111.0,4.82
44121.0,4.82
44130.0,4.82
44140.0,4.82
44150.0,4.81
44161.0,4.67
44171.0,4.49
44180.0,4.55
44190.0,4.37
44201.0,4.21
44211.0,4.19
44220.0,4.18
44230.0,4.06
44241.0,4.29
44251.0,4.69
44260.0,4.82
44270.0,4.82
44281.0,4.82
44291.0,4.82
44300.0,4.82
44310.0,4.81
44320.0,4.76
44331.0,4.81
44341.0,4.81
44350.0,4.81
44360.0,4.81
44371.0,4.81
44381.0,4.81
44390.0,4.81
44400.0,4.81
44411.0,4.81
44421.0,4.81
44430.0,4.81
44440.0,4.81
44451.0,4.81
44461.0,4.81
44471.0,4.81
44480.0,4.81
44490.0,4.81
44501.0,4.74
44511.0,4.6
44520.0,4.35
44530.0,4.18
44541.0,3.95
44551.0,3.75
44560.0,3.62
44570.0,3.53
44581.0,3.35
44591.0,3.2
44600.0,3.15
44610.0,2.94
44620.0,2.9
44631.0,2.72
44641.0,2.71
44650.0,2.65
44660.0,2.81
44671.0,2.77
44681.0,2.92
44690.0,2.94
44700.0,3.09
44711.0,3.05
44721.0,3.18
44730.0,3.04
44740.0,3.04
44751.0,2.94
44761.0,2.87
44770.0,2.69
44780.0,2.63
44790.0,2.46
44801.0,2.43
44811.0,2.34
44820.0,2.28
44830.0,2.18
44841.0,2.11
44851.0,2.08
44860.0,2.07
44870.0,2.07
44881.0,2.09
44891.0,2.12
44900.0,2.1
44910.0,2.06
44921.0,2.03
44931.0,1.95
44940.0,1.94
44950.0,1.84
44960.0,1.85
44971.0,1.77
44981.0,1.79
44990.0,1.74
45000.0,1.74
45011.0,1.75
45021.0,1.75
45030.0,1.74
45040.0,1.76
45051.0,1.92
45061.0,1.97
45070.0,2.11
45080.0,2.34
45091.0,2.91
45101.0,3.34
45111.0,3.97
45120.0,4.53
45130.0,4.81
45141.0,4.81
45151.0,4.81
45160.0,4.81
45170.0,4.81
45181.0,4.81
45191.0,4.81
45200.0,4.81
45210.0,4.81
45221.0,4.81
45231.0,4.81
45241.0,4.81
45250.0,4.81
45260.0,4.81
45271.0,4.81
45281.0,4.81
45290.0,4.81
45300.0,4.81
45311.0,4.81
45321.0,4.81
45330.0,4.82
45340.0,4.81
45351.0,4.81
45361.0,4.82
45370.0,4.81
45380.0,4.81
45391.0,4.81
45401.0,4.81
45411.0,4.82
45420.0,4.81
45430.0,4.81
45441.0,4.81
45451.0,4.82
45460.0,4.81
45470.0,4.81
45481.0,4.81
45491.0,4.81
45500.0,4.81
45510.0,4.81
45521.0,4.81
45531.0,4.81
45540.0,4.81
45550.0,4.81
45561.0,4.81
45571.0,4.82
45581.0,4.81
45590.0,4.81
45600.0,4.81
45611.0,4.81
45621.0,4.81
45630.0,4.81
45640.0,4.81
45651.0,4.81
45661.0,4.81
45670.0,4.81
45680.0,4.81
45691.0,4.81
45701.0,4.81
45710.0,4.81
45720.0,4.81
45731.0,4.81
45741.0,4.81
45751.0,4.81
45760.0,4.81
45770.0,4.81
45781.0,4.81
45791.0,4.81
45800.0,4.69
45810.0,4.68
45821.0,4.48
45831.0,4.56
45840.0,4.35
45850.0,4.43
45861.0,4.25
45871.0,4.22
45881.0,3.93
45890.0,3.85
45900.0,3.63
45911.0,3.5
45921.0,3.31
45930.0,3.06
45940.0,2.95
45951.0,2.78
45961.0,2.93
45970.0,2.81
45980.0,3.05
45991.0,2.96
46001.0,3.03
46010.0,2.87
46020.0,2.74
46031.0,2.6
46041.0,2.47
46051.0,2.65
46060.0,2.61
46070.0,3.03
46081.0,3.43
46091.0,4.24
46100.0,4.27
46110.0,4.6
46121.0,4.71
46131.0,4.81
46140.0,4.81
46150.0,4.81
46161.0,4.81
46171.0,4.81
46180.0,4.81
46190.0,4.81
46201.0,4.81
46211.0,4.81
46221.0,4.81
46230.0,4.82
46240.0,4.81
46251.0,4.81
46261.0,4.81
46270.0,4.81
46280.0,4.81
46291.0,4.81
46301.0,4.81
46310.0,4.81
46320.0,4.81
46331.0,4.81
46341.0,4.82
46350.0,4.81
46360.0,4.81
46371.0,4.81
46381.0,4.81
46391.0,4.81
46400.0,4.82
46410.0,4.82
46421.0,4.81
46431.0,4.81
46440.0,4.81
46450.0,4.81
46461.0,4.81
46471.0,4.81
46480.0,4.81
46490.0,4.81
46501.0,4.81
46511.0,4.81
46521.0,4.81
46530.0,4.81
46540.0,4.81
46551.0,4.81
46561.0,4.81
46570.0,4.82
46580.0,4.81
46591.0,4.81
46601.0,4.61
46610.0,4.21
46620.0,4.04
46631.0,3.73
46641.0,3.73
46650.0,3.6
46660.0,3.7
46671.0,3.71
46681.0,3.88
46691.0,3.85
46700.0,4.11
46710.0,4.13
46721.0,4.37
46731.0,4.4
46740.0,4.49
46750.0,4.37
46761.0,4.52
46771.0,4.43
46780.0,4.61
46790.0,4.55
46801.0,4.76
46811.0,4.71
46820.0,4.81
46830.0,4.82
46841.0,4.81
46851.0,4.81
46861.0,4.81
46870.0,4.82
46880.0,4.82
46891.0,4.82
46901.0,4.81
46910.0,4.81
46920.0,4.82
46931.0,4.82
46941.0,4.82
46950.0,4.82
46960.0,4.81
46971.0,4.82
46981.0,4.82
46990.0,4.81
47000.0,4.82
47011.0,4.82
47021.0,4.82
47031.0,4.81
47040.0,4.81
47050.0,4.81
47061.0,4.82
47071.0,4.62
47080.0,4.31
47090.0,4.34
47101.0,4.24
47111.0,4.44
47120.0,4.42
47130.0,4.79
47141.0,4.81
47151.0,4.81
47161.0,4.81
47170.0,4.81
47180.0,4.81
47191.0,4.81
47201.0,4.81
47210.0,4.81
47220.0,4.81
47231.0,4.81
47241.0,4.81
47250.0,4.82
47260.0,4.81
47271.0,4.82
47281.0,4.81
47290.0,4.81
47300.0,4.81
47311.0,4.81
47321.0,4.81
47331.0,4.81
47340.0,4.67
47350.0,4.68
47361.0,4.5
47371.0,4.45
47380.0,4.18
47390.0,4.12
47401.0,3.91
47411.0,3.9
47420.0,3.73
47430.0,3.71
47441.0,3.54
47451.0,3.51
47460.0,3.36
47470.0,3.34
47481.0,3.19
47491.0,3.2
47501.0,3.04
47510.0,3.08
47520.0,2.95
47531.0,2.93
47541.0,2.81
47550.0,2.76
47560.0,2.61
47571.0,2.61
47581.0,2.47
47590.0,2.46
47600.0,2.34
47611.0,2.35
47621.0,2.28
47630.0,2.27
47640.0,2.19
47651.0,2.18
47661.0,2.1
47671.0,2.08
47680.0,2.01
47690.0,2.02
47701.0,1.95
47711.0,1.95
47720.0,1.88
47730.0,1.87
47741.0,1.81
47751.0,1.81
47760.0,1.77
47770.0,1.81
47781.0,1.76
47791.0,1.77
47801.0,1.73
47810.0,1.76
47820.0,1.73
47831.0,1.74
47841.0,1.67
47850.0,1.75
47860.0,1.76
47871.0,1.79
47881.0,1.73
47890.0,1.74
47900.0,1.82
47911.0,2.07
47921.0,2.26
47931.0,2.45
47940.0,2.83
47951.0,3.01
47961.0,3.41
47971.0,3.56
47980.0,3.89
47990.0,3.82
48001.0,3.79
48011.0,3.64
48020.0,3.47
48030.0,3.2
48041.0,3.12
48051.0,3.05
48060.0,3.1
48070.0,3.07
48081.0,3.31
48091.0,3.4
48101.0,3.45
48110.0,3.67
48121.0,3.78
48131.0,4.1
48141.0,4.47
48150.0,4.81
48160.0,4.81
48171.0,4.81
48181.0,4.81
48190.0,4.81
48200.0,4.81
48211.0,4.81
48221.0,4.81
48230.0,4.81
48240.0,4.81
48251.0,4.59
48261.0,4.29
48271.0,4.26
48280.0,4.47
48291.0,4.81
48301.0,4.82
48311.0,4.82
48320.0,4.82
48330.0,4.81
48341.0,4.81
48351.0,4.82
48360.0,4.82
48370.0,4.81
48381.0,4.81
48391.0,4.82
48400.0,4.81
48410.0,4.81
48421.0,4.82
48431.0,4.82
48441.0,4.82
48450.0,4.82
48460.0,4.82
48471.0,4.82
48481.0,4.82
48490.0,4.82
48500.0,4.82
48511.0,4.82
48521.0,4.82
48530.0,4.82
48540.0,4.82
48551.0,4.82
48561.0,4.81
48571.0,4.82
48580.0,4.82
48591.0,4.82
48601.0,4.81
48611.0,4.82
48620.0,4.81
48630.0,4.82
48641.0,4.81
48651.0,4.82
48660.0,4.82
48670.0,4.82
48681.0,4.81
48691.0,4.82
48700.0,4.81
48710.0,4.82
48721.0,4.81
48731.0,4.82
48741.0,4.82
48750.0,4.82
48761.0,4.81
48771.0,4.82
48781.0,4.82
48790.0,4.81
48800.0,4.82
48811.0,4.82
48821.0,4.82
48830.0,4.82
48840.0,4.82
48851.0,4.82
48861.0,4.82
48870.0,4.82
48880.0,4.81
48891.0,4.81
48901.0,4.7
48911.0,4.58
48920.0,4.35
48931.0,4.27
48941.0,4.09
48951.0,4.02
48960.0,3.87
48970.0,3.89
48981.0,3.74
48991.0,3.77
49000.0,3.67
49010.0,3.71
49021.0,3.63
49031.0,3.72
49040.0,3.7
49050.0,3.82
49061.0,3.83
49071.0,3.95
49081.0,3.94
49090.0,4.06
49100.0,4.05
49111.0,4.13
49121.0,4.05
49130.0,4.0
49140.0,3.82
49151.0,3.74
49161.0,3.52
49170.0,3.39
49180.0,3.14
49191.0,2.94
49201.0,2.91
49211.0,2.95
49220.0,3.12
49231.0,3.1
49241.0,3.24
49251.0,3.15
49260.0,3.2
49270.0,3.19
49281.0,3.45
49291.0,3.5
49301.0,3.79
49310.0,3.86
49321.0,4.07
49331.0,4.07
49341.0,4.21
49350.0,4.15
49361.0,4.28
49371.0,4.2
49381.0,4.34
49390.0,4.25
49401.0,4.33
49411.0,4.26
49421.0,4.34
49430.0,4.24
49440.0,4.34
49451.0,4.22
49461.0,4.32
49471.0,4.18
49480.0,4.27
49491.0,4.2
49501.0,4.29
49511.0,4.17
49520.0,4.24
49531.0,4.11
49541.0,4.21
49551.0,4.08
49560.0,4.17
49571.0,4.06
49581.0,4.14
49591.0,4.0
49600.0,4.07
49610.0,3.93
49621.0,4.01
49631.0,3.83
49641.0,3.91
49650.0,3.75
49661.0,3.86
49671.0,3.72
49681.0,3.77
49690.0,3.65
49701.0,3.72
49711.0,3.59
49721.0,3.68
49730.0,3.56
49740.0,3.63
49751.0,3.47
49761.0,3.57
49770.0,3.44
49780.0,3.52
49791.0,3.4
49801.0,3.49
49811.0,3.35
49820.0,3.45
49831.0,3.3
49841.0,3.39
49851.0,3.23
49860.0,3.29
49871.0,3.12
49881.0,3.17
49891.0,3.04
49900.0,3.03
49910.0,2.86
49921.0,2.9
49931.0,2.76
49941.0,2.83
49950.0,2.69
49961.0,2.79
49971.0,2.64
49981.0,2.86
49990.0,2.78
50001.0,2.86
50011.0,3.06
50021.0,3.12
50030.0,3.42
50041.0,4.22
50051.0,4.81
50061.0,4.81
50070.0,4.82
50080.0,4.81
50091.0,4.81
50101.0,4.81
50111.0,4.82
50120.0,4.81
50131.0,4.81
50141.0,4.81
50151.0,4.81
50160.0,4.81
50171.0,4.81
50181.0,4.81
50191.0,4.81
50200.0,4.81
50211.0,4.81
50221.0,4.81
50231.0,4.81
50241.0,4.81
50250.0,4.81
50261.0,4.81
50271.0,4.81
50281.0,4.81
50290.0,4.81
50301.0,4.81
50311.0,4.81
50321.0,4.81
50330.0,4.81
50341.0,4.82
50351.0,4.81
50361.0,4.81
50371.0,4.81
50380.0,4.81
50391.0,4.82
50401.0,4.82
50411.0,4.82
50420.0,4.81
50431.0,4.6
50441.0,4.4
50451.0,4.03
50460.0,3.83
50471.0,3.58
50481.0,3.36
50491.0,3.18
50500.0,3.04
50511.0,2.92
50521.0,2.75
50531.0,2.65
50541.0,2.49
50550.0,2.46
50561.0,2.33
50571.0,2.26
50581.0,2.15
50590.0,2.24
50601.0,2.11
50611.0,2.18
50621.0,2.12
50630.0,2.2
50641.0,2.15
50651.0,2.24
50661.0,2.19
50670.0,2.4
50681.0,2.34
50691.0,2.61
50701.0,2.52
50711.0,2.78
50720.0,2.83
50731.0,3.17
50741.0,3.35
50751.0,3.84
50760.0,4.02
50771.0,4.49
50781.0,4.64
50791.0,4.81
50801.0,4.81
50811.0,4.82
50821.0,4.82
50831.0,4.81
50841.0,4.81
50851.0,4.82
50861.0,4.82
50871.0,4.82
50881.0,4.81
50890.0,4.81
50901.0,4.82
50911.0,4.82
50921.0,4.82
50931.0,4.81
50941.0,4.82
50951.0,4.81
50961.0,4.82
50971.0,4.82
50981.0,4.82
50991.0,4.82
51001.0,4.82
51011.0,4.82
51020.0,4.82
51031.0,4.82
51041.0,4.82
51051.0,4.82
51060.0,4.82
51071.0,4.82
51081.0,4.81
51091.0,4.82
51101.0,4.81
51111.0,4.82
51121.0,4.81
51131.0,4.81
51141.0,4.55
51151.0,4.25
51161.0,4.21
51171.0,4.12
51181.0,4.35
51190.0,4.53
51201.0,4.81
51211.0,4.81
51221.0,4.81
51230.0,4.81
51241.0,4.81
51251.0,4.81
51261.0,4.81
51271.0,4.81
51281.0,4.81
51291.0,4.81
51301.0,4.82
51311.0,4.81
51321.0,4.81
51331.0,4.81
51341.0,4.81
51351.0,4.81
51360.0,4.81
51371.0,4.81
51381.0,4.81
51391.0,4.81
51400.0,4.81
51411.0,4.81
51421.0,4.81
51431.0,4.81
51441.0,4.81
51451.0,4.82
51461.0,4.81
51471.0,4.81
51481.0,4.81
51491.0,4.81
51501.0,4.81
51511.0,4.81
51521.0,4.81
51530.0,4.81
51541.0,4.81
51551.0,4.81
51561.0,4.81
51571.0,4.82
51581.0,4.81
51591.0,4.81
51601.0,4.81
51611.0,4.81
51621.0,4.81
51631.0,4.81
51641.0,4.81
51651.0,4.81
51660.0,4.81
51671.0,4.81
51681.0,4.81
51691.0,4.81
51700.0,4.81
51711.0,4.81
51721.0,4.81
51731.0,4.81
51741.0,4.81
51751.0,4.81
51761.0,4.81
51771.0,4.81
51781.0,4.81
51791.0,4.81
51801.0,4.81
51811.0,4.81
51821.0,4.81
51830.0,4.81
51841.0,4.82
51851.0,4.81
51861.0,4.81
51870.0,4.81
51881.0,4.81
51891.0,4.81
51901.0,4.81
51911.0,4.81
51921.0,4.81
51931.0,4.81
51941.0,4.81
51951.0,4.81
51961.0,4.81
51971.0,4.81
51981.0,4.81
51991.0,4.81
52000.0,4.81
52011.0,4.81
52021.0,4.81
52031.0,4.81
52040.0,4.81
52051.0,4.81
52061.0,4.81
52071.0,4.81
52081.0,4.81
52091.0,4.81
52101.0,4.72
52111.0,4.41
52121.0,4.3
52131.0,3.92
52141.0,3.69
52151.0,3.39
52161.0,3.23
52170.0,2.98
52181.0,2.89
52191.0,2.81
52201.0,2.96
52211.0,3.01
52221.0,3.22
52231.0,3.48
52241.0,3.45
52251.0,3.24
52261.0,3.04
52271.0,2.94
52281.0,2.98
52291.0,2.81
52300.0,2.76
52311.0,2.62
52321.0,2.6
52331.0,2.55
52340.0,2.53
52351.0,2.54
52361.0,2.71
52371.0,2.53
52381.0,2.44
52391.0,2.31
52401.0,2.24
52411.0,2.19
52421.0,2.21
52431.0,2.2
52441.0,2.29
52451.0,2.34
52461.0,2.77
52470.0,2.77
52481.0,3.23
52491.0,3.57
52501.0,3.9
52510.0,4.01
52521.0,4.08
52531.0,4.06
52541.0,3.98
52551.0,3.84
52561.0,3.8
52571.0,3.66
52581.0,3.77
52591.0,3.98
52601.0,4.3
52611.0,4.79
52621.0,4.82
52631.0,4.82
52640.0,4.82
52651.0,4.81
52661.0,4.82
52671.0,4.82
52680.0,4.82
52691.0,4.81
52701.0,4.82
52711.0,4.81
52721.0,4.82
52731.0,4.81
52741.0,4.82
52751.0,4.82
52761.0,4.82
52771.0,4.81
52781.0,4.58
52791.0,4.25
52801.0,4.17
52810.0,3.99
52821.0,4.15
52831.0,4.25
52841.0,4.43
52851.0,4.73
52861.0,4.82
52871.0,4.81
52881.0,4.82
52891.0,4.82
52901.0,4.81
52911.0,4.82
52921.0,4.82
52931.0,4.82
52940.0,4.82
52951.0,4.82
52961.0,4.82
52971.0,4.81
52980.0,4.82
52991.0,4.82
53001.0,4.82
53011.0,4.82
53021.0,4.82
53031.0,4.82
53041.0,4.82
53051.0,4.82
53061.0,4.81
53071.0,4.82
53081.0,4.82
53091.0,4.81
53101.0,4.82
53110.0,4.82
53121.0,4.82
53131.0,4.82
53141.0,4.81
53150.0,4.82
53161.0,4.82
53171.0,4.82
53181.0,4.82
53191.0,4.82
53201.0,4.82
53211.0,4.81
53221.0,4.81
53231.0,4.65
53241.0,4.38
53251.0,4.4
53261.0,4.49
53271.0,4.79
53280.0,4.81
53291.0,4.81
53301.0,4.81
53311.0,4.81
53320.0,4.81
53331.0,4.81
53341.0,4.78
53351.0,4.77
53361.0,4.57
53371.0,4.59
53381.0,4.4
53391.0,4.38
53401.0,4.18
53411.0,4.11
53421.0,3.9
53431.0,3.8
53441.0,3.61
53450.0,3.52
53461.0,3.35
53471.0,3.26
53481.0,3.08
53491.0,2.99
53501.0,2.85
53511.0,2.72
53521.0,2.58
53531.0,2.49
53541.0,2.4
53551.0,2.33
53561.0,2.25
53571.0,2.15
53580.0,2.11
53591.0,2.01
53601.0,1.96
53611.0,1.91
53620.0,1.89
53631.0,1.84
53641.0,1.83
53651.0,1.8
53661.0,1.79
53671.0,1.77
53681.0,1.77
53691.0,1.74
53701.0,1.74
53711.0,1.72
53721.0,1.7
53731.0,1.68
53741.0,1.7
53750.0,1.7
53761.0,1.7
53771.0,1.64
53781.0,1.65
53790.0,1.64
53801.0,1.66
53811.0,1.61
53821.0,1.64
53831.0,1.58
53841.0,1.58
53851.0,1.53
53861.0,1.55
53871.0,1.51
53881.0,1.52
53891.0,1.55
53901.0,1.57
53911.0,1.65
53920.0,1.65
53931.0,1.75
53941.0,1.83
53951.0,1.87
53960.0,1.82
53971.0,2.02
53981.0,2.08
53991.0,2.11
54001.0,2.4
54011.0,2.62
54021.0,2.53
54031.0,2.48
54041.0,2.48
54051.0,2.6
54061.0,2.45
54071.0,2.34
54081.0,2.66
54090.0,3.04
54101.0,3.87
54111.0,4.64
54121.0,4.82
54131.0,4.81
54141.0,4.82
54151.0,4.82
54161.0,4.81
54171.0,4.82
54181.0,4.82
54191.0,4.82
54201.0,4.81
54211.0,4.81
54220.0,4.81
54231.0,4.82
54241.0,4.82
54251.0,4.82
54260.0,4.82
54271.0,4.82
54281.0,4.82
54291.0,4.82
54301.0,4.82
54311.0,4.82
54321.0,4.82
54331.0,4.81
54341.0,4.82
54351.0,4.82
54361.0,4.82
54371.0,4.81
54381.0,4.81
54390.0,4.81
54401.0,4.82
54411.0,4.81
54421.0,4.82
54430.0,4.81
54441.0,4.81
54451.0,4.82
54461.0,4.82
54471.0,4.82
54481.0,4.82
54491.0,4.81
54501.0,4.82
54511.0,4.81
54521.0,4.82
54531.0,4.82
54541.0,4.82
54551.0,4.82
54560.0,4.82
54571.0,4.82
54581.0,4.81
54591.0,4.82
54600.0,4.82
54611.0,4.79
54621.0,4.81
54631.0,4.64
54641.0,4.59
54651.0,4.36
54661.0,4.36
54671.0,4.04
54681.0,4.05
54691.0,3.83
54701.0,3.98
54711.0,4.06
54721.0,4.3
54730.0,4.33
54741.0,4.55
54751.0,4.56
54761.0,4.82
54771.0,4.82
54781.0,4.82
54791.0,4.82
54801.0,4.82
54811.0,4.82
54821.0,4.82
54831.0,4.82
54841.0,4.82
54851.0,4.82
54860.0,4.81
54871.0,4.74
54881.0,4.74
54891.0,4.46
54900.0,4.38
54911.0,4.12
54921.0,4.1
54931.0,3.89
54941.0,3.91
54951.0,3.71
54961.0,3.79
54971.0,3.6
54981.0,3.67
54991.0,3.51
55001.0,3.58
55011.0,3.46
55021.0,3.51
55030.0,3.37
55041.0,3.36
55051.0,3.17
55061.0,3.18
55070.0,2.98
55081.0,2.88
55091.0,2.7
55101.0,2.58
55111.0,2.46
55121.0,2.35
55131.0,2.27
55141.0,2.16
55151.0,2.31
55161.0,2.33
55171.0,2.81
55181.0,3.1
55191.0,3.57
55200.0,3.91
55211.0,4.45
55221.0,4.81
55231.0,4.81
55240.0,4.81
55251.0,4.82
55261.0,4.81
55271.0,4.81
55281.0,4.81
55291.0,4.81
55301.0,4.81
55311.0,4.81
55321.0,4.81
55331.0,4.81
55341.0,4.81
55351.0,4.81
55361.0,4.81
55370.0,4.81
55381.0,4.81
55391.0,4.81
55401.0,4.81
55411.0,4.81
55421.0,4.81
55431.0,4.81
55441.0,4.81
55451.0,4.81
55461.0,4.81
55471.0,4.81
55481.0,4.81
55491.0,4.81
55500.0,4.61
55511.0,4.57
55521.0,4.34
55531.0,4.29
55540.0,4.11
55551.0,4.08
55561.0,3.84
55571.0,3.77
55581.0,3.56
55591.0,3.5
55601.0,3.34
55611.0,3.31
55621.0,3.16
55631.0,3.14
55641.0,3.0
55651.0,2.95
55661.0,2.85
55670.0,2.87
55681.0,2.77
55691.0,2.79
55701.0,2.69
55710.0,2.7
55721.0,2.61
55731.0,2.63
55741.0,2.54
55751.0,2.57
55761.0,2.48
55771.0,2.53
55781.0,2.43
55791.0,2.49
55801.0,2.43
55811.0,2.43
55821.0,2.37
55831.0,2.37
55840.0,2.29
55851.0,2.33
55861.0,2.25
55871.0,2.27
55880.0,2.19
55891.0,2.23
55901.0,2.17
55911.0,2.17
55921.0,2.12
55931.0,2.12
55941.0,2.05
55951.0,2.1
55961.0,2.02
55971.0,2.05
55981.0,1.97
55991.0,2.0
56001.0,1.96
56010.0,1.97
56021.0,1.94
56031.0,1.97
56041.0,1.94
56051.0,2.0
56061.0,1.91
56071.0,1.95
56081.0,1.91
56091.0,1.97
56101.0,1.92
56111.0,1.95
56121.0,1.91
56131.0,1.89
56140.0,1.81
56151.0,1.84
56161.0,1.78
56171.0,1.83
56180.0,1.77
56191.0,1.89
56201.0,1.83
56211.0,1.86
56221.0,1.82
56231.0,1.74
56241.0,1.7
56251.0,1.68
56261.0,1.69
56271.0,1.84
56281.0,1.79
56291.0,1.87
56301.0,1.91
56310.0,1.99
56321.0,2.08
56331.0,2.19
56341.0,2.07
56350.0,2.13
56361.0,2.25
56371.0,2.58
56381.0,2.88
56391.0,3.3
56401.0,3.7
56411.0,4.16
56421.0,4.54
56431.0,4.81
56441.0,4.81
56451.0,4.82
56461.0,4.82
56471.0,4.82
56480.0,4.82
56491.0,4.81
56501.0,4.82
56511.0,4.82
56520.0,4.82
56531.0,4.82
56541.0,4.82
56551.0,4.82
56561.0,4.82
56571.0,4.82
56581.0,4.81
56591.0,4.82
56601.0,4.82
56611.0,4.82
56621.0,4.82
56631.0,4.82
56641.0,4.82
56650.0,4.82
56661.0,4.81
56671.0,4.81
56681.0,4.81
56691.0,4.82
56701.0,4.81
56711.0,4.82
56721.0,4.81
56731.0,4.82
56741.0,4.81
56751.0,4.82
56761.0,4.81
56771.0,4.82
56780.0,4.82
56791.0,4.82
56801.0,4.82
56811.0,4.82
56820.0,4.81
56831.0,4.82
56841.0,4.82
56851.0,4.82
56861.0,4.82
56871.0,4.82
56881.0,4.82
56891.0,4.81
56901.0,4.82
56911.0,4.82
56921.0,4.82
56931.0,4.82
56941.0,4.82
56950.0,4.82
56961.0,4.82
56971.0,4.82
56981.0,4.82
56990.0,4.81
57001.0,4.82
57011.0,4.82
57021.0,4.82
57031.0,4.82
57041.0,4.82
57051.0,4.82
57061.0,4.81
57071.0,4.81
57081.0,4.78
57091.0,4.72
57101.0,4.52
57111.0,4.47
57120.0,4.23
57131.0,4.17
57141.0,3.96
57151.0,3.91
57160.0,3.75
57171.0,3.73
57181.0,3.59
57191.0,3.63
57201.0,3.51
57211.0,3.53
57221.0,3.38
57231.0,3.4
57241.0,3.23
57251.0,3.23
57261.0,3.03
57271.0,2.89
57281.0,2.76
57290.0,2.7
57301.0,2.98
57311.0,3.14
57321.0,3.74
57331.0,4.31
57341.0,4.81
57351.0,4.81
57361.0,4.81
57371.0,4.81
57381.0,4.81
57391.0,4.81
57401.0,4.81
57411.0,4.81
57420.0,4.81
57431.0,4.81
57441.0,4.81
57451.0,4.81
57460.0,4.81
57471.0,4.82
57481.0,4.81
57491.0,4.81
57501.0,4.81
57511.0,4.81
57521.0,4.81
57531.0,4.81
57541.0,4.81
57551.0,4.81
57561.0,4.81
57571.0,4.81
57581.0,4.81
57590.0,4.81
57601.0,4.82
57611.0,4.81
57621.0,4.81
57630.0,4.81
57641.0,4.81
57651.0,4.81
57661.0,4.81
57671.0,4.81
57681.0,4.81
57691.0,4.81
57701.0,4.81
57711.0,4.81
57721.0,4.81
57731.0,4.81
57741.0,4.81
57751.0,4.81
57760.0,4.81
57771.0,4.81
57781.0,4.81
57791.0,4.81
57800.0,4.81
57811.0,4.81
57821.0,4.81
57831.0,4.81
57841.0,4.81
57851.0,4.81
57861.0,4.81
57871.0,4.72
57881.0,4.76
57891.0,4.54
57901.0,4.58
57911.0,4.38
57921.0,4.43
57930.0,4.2
57941.0,4.27
57951.0,4.07
57961.0,4.12
57971.0,3.95
57981.0,4.03
57991.0,3.8
58001.0,3.91
58011.0,3.74
58021.0,3.84
58031.0,3.63
58041.0,3.7
58051.0,3.56
58060.0,3.65
58071.0,3.5
58081.0,3.63
58091.0,3.5
58101.0,3.54
58111.0,3.42
58121.0,3.61
58131.0,3.41
58141.0,3.39
58151.0,3.13
58161.0,2.92
58171.0,2.74
58181.0,2.56
58191.0,2.67
58201.0,2.76
58211.0,3.53
58221.0,4.06
58230.0,4.82
58241.0,4.82
58251.0,4.82
58261.0,4.82
58271.0,4.82
58281.0,4.82
58291.0,4.82
58301.0,4.81
58311.0,4.82
58321.0,4.82
58331.0,4.82
58341.0,4.82
58351.0,4.82
58361.0,4.82
58371.0,4.82
58381.0,4.81
58391.0,4.81
58400.0,4.82
58411.0,4.81
58421.0,4.81
58431.0,4.81
58441.0,4.81
58451.0,4.81
58461.0,4.81
58471.0,4.81
58481.0,4.81
58491.0,4.81
58501.0,4.81
58511.0,4.72
58521.0,4.46
58531.0,4.13
58541.0,3.79
58551.0,3.69
58561.0,3.45
58570.0,3.54
58581.0,3.41
58591.0,3.38
58601.0,3.15
58611.0,3.05
58621.0,2.89
58631.0,2.86
58641.0,2.66
58651.0,2.67
58661.0,2.54
58671.0,2.52
58681.0,2.42
58691.0,2.37
58700.0,2.24
58711.0,2.19
58721.0,2.14
58731.0,2.06
58741.0,2.02
58751.0,2.0
58761.0,1.94
58771.0,2.1
58781.0,2.18
58791.0,2.7
58801.0,3.17
58811.0,3.93
58821.0,4.46
58831.0,4.82
58841.0,4.82
58851.0,4.81
58861.0,4.82
58870.0,4.82
58881.0,4.82
58891.0,4.82
58901.0,4.82
58911.0,4.81
58921.0,4.81
58931.0,4.82
58941.0,4.82
58951.0,4.81
58961.0,4.82
58971.0,4.82
58981.0,4.82
58991.0,4.82
59001.0,4.82
59011.0,4.82
59021.0,4.82
59031.0,4.8
59040.0,4.48
59051.0,4.4
59061.0,4.16
59071.0,4.09
59081.0,3.87
59091.0,3.79
59101.0,3.57
59111.0,3.56
59121.0,3.39
59131.0,3.4
59141.0,3.22
59151.0,3.11
59161.0,2.92
59171.0,2.87
59181.0,2.72
59191.0,2.69
59201.0,2.61
59210.0,2.85
59221.0,2.8
59231.0,2.9
59241.0,2.78
59251.0,2.8
59261.0,2.64
59271.0,2.55
59281.0,2.48
59291.0,2.51
59301.0,2.82
59311.0,2.99
59321.0,3.26
59331.0,3.36
59340.0,3.65
59351.0,3.83
59361.0,4.13
59371.0,4.25
59381.0,4.62
59391.0,4.7
59401.0,4.81
59411.0,4.81
59421.0,4.82
59431.0,4.81
59441.0,4.81
59451.0,4.75
59461.0,4.75
59471.0,4.62
59481.0,4.68
59491.0,4.56
59501.0,4.54
59510.0,4.4
59521.0,4.42
59531.0,4.32
59541.0,4.32
59551.0,4.3
59561.0,4.3
59571.0,4.21
59581.0,4.19
59591.0,4.14
59601.0,4.14
59611.0,4.04
59621.0,4.02
59631.0,3.91
59641.0,3.93
59651.0,3.84
59661.0,3.83
59671.0,3.75
59680.0,3.69
59691.0,3.61
59701.0,3.61
59711.0,3.48
59721.0,3.46
59731.0,3.35
59741.0,3.29
59751.0,3.22
59761.0,3.15
59771.0,3.06
59781.0,3.04
59791.0,2.9
59801.0,2.95
59811.0,2.85
59821.0,2.83
59831.0,2.71
59841.0,2.7
59850.0,2.62
59861.0,2.6
59871.0,2.53
59881.0,2.51
59891.0,2.43
59901.0,2.44
59911.0,2.34
59921.0,2.33
59931.0,2.24
59941.0,2.24
59951.0,2.18
59961.0,2.17
59971.0,2.11
59980.0,2.06
59991.0,1.97
60001.0,1.97
60011.0,1.9
60021.0,2.01
60031.0,2.03
60041.0,2.01
60051.0,1.95
60061.0,1.94
60071.0,1.85
60081.0,1.84
60091.0,1.88
60101.0,2.17
60111.0,2.64
60121.0,3.06
60131.0,3.49
60141.0,3.83
60152.0,4.25
60161.0,4.49
60171.0,4.18
60181.0,4.04
60191.0,4.23
60201.0,4.24
60211.0,4.1
60221.0,3.93
60231.0,3.58
60241.0,3.32
60251.0,3.04
60261.0,2.83
60271.0,2.86
60282.0,2.89
60291.0,2.9
60301.0,3.03
60311.0,3.03
60321.0,3.19
60331.0,3.6
60341.0,4.09
60351.0,4.72
60361.0,4.81
60371.0,4.81
60381.0,4.81
60391.0,4.81
60401.0,4.73
60411.0,4.3
60421.0,4.01
60431.0,3.64
60441.0,3.53
60452.0,3.4
60461.0,3.45
60471.0,3.44
60481.0,3.66
60491.0,3.55
60501.0,3.57
60511.0,3.32
60521.0,3.13
60531.0,2.92
60541.0,2.87
60551.0,2.69
60561.0,2.57
60571.0,2.4
60581.0,2.39
60591.0,2.3
60601.0,2.34
60611.0,2.24
60622.0,2.26
60631.0,2.14
60641.0,2.2
60651.0,2.09
60661.0,2.12
60671.0,2.02
60681.0,2.03
60691.0,1.92
60701.0,1.91
60711.0,1.82
60721.0,1.96
60731.0,1.99
60741.0,2.31
60752.0,2.51
60761.0,2.83
60771.0,3.01
60781.0,3.36
60792.0,3.52
60801.0,3.78
60811.0,3.82
60821.0,3.99
60831.0,3.93
60841.0,3.91
60851.0,3.7
60861.0,3.67
60871.0,3.44
60881.0,3.28
60891.0,3.08
60901.0,3.04
60911.0,2.85
60922.0,2.77
60931.0,2.58
60941.0,2.55
60951.0,2.38
60961.0,2.38
60971.0,2.22
60981.0,2.21
60991.0,2.09
61001.0,2.1
61011.0,2.0
61021.0,2.08
61031.0,2.02
61041.0,2.11
61051.0,2.04
61061.0,2.02
61071.0,1.97
61081.0,1.92
61092.0,1.93
61101.0,1.9
61111.0,2.14
61121.0,2.35
61131.0,2.83
61141.0,3.22
61151.0,3.84
61161.0,4.34
61171.0,4.81
61181.0,4.81
61191.0,4.81
61201.0,4.81
61211.0,4.81
61221.0,4.81
61231.0,4.81
61241.0,4.81
61251.0,4.81
61262.0,4.81
61271.0,4.81
61281.0,4.81
61291.0,4.81
61301.0,4.81
61311.0,4.81
61321.0,4.81
61331.0,4.81
61341.0,4.81
61351.0,4.81
61361.0,4.81
61371.0,4.81
61381.0,4.81
61392.0,4.81
61401.0,4.81
61411.0,4.81
61421.0,4.81
61432.0,4.81
61441.0,4.81
61451.0,4.81
61461.0,4.81
61471.0,4.81
61481.0,4.81
61491.0,4.81
61501.0,4.81
61511.0,4.81
61521.0,4.81
61531.0,4.81
61541.0,4.81
61551.0,4.81
61562.0,4.81
61571.0,4.82
61581.0,4.81
61591.0,4.81
61601.0,4.81
61611.0,4.81
61621.0,4.79
61631.0,4.76
61641.0,4.51
61651.0,4.51
61661.0,4.27
61671.0,4.31
61681.0,4.09
61691.0,4.1
61701.0,3.88
61711.0,3.86
61721.0,3.65
61732.0,3.67
61741.0,3.46
61751.0,3.5
61761.0,3.31
61771.0,3.38
61781.0,3.18
61791.0,3.22
61801.0,3.04
61811.0,3.09
61821.0,2.94
61831.0,2.98
61841.0,2.88
61851.0,2.96
61861.0,2.83
61871.0,2.89
61881.0,2.76
61891.0,2.76
61902.0,2.79
61911.0,2.93
61921.0,2.77
61931.0,2.95
61941.0,2.75
61951.0,2.65
61961.0,2.62
61971.0,2.63
61981.0,2.69
61991.0,2.61
62001.0,2.61
62011.0,2.75
62021.0,3.51
62032.0,4.08
62041.0,4.82
62051.0,4.82
62061.0,4.82
62072.0,4.82
62081.0,4.82
62091.0,4.82
62101.0,4.82
62111.0,4.82
62121.0,4.82
62131.0,4.81
62141.0,4.81
62151.0,4.82
62161.0,4.82
62171.0,4.81
62181.0,4.82
62191.0,4.82
62202.0,4.82
62211.0,4.81
62221.0,4.82
62231.0,4.81
62241.0,4.81
62251.0,4.82
62261.0,4.82
62271.0,4.82
62281.0,4.82
62291.0,4.82
62301.0,4.82
62311.0,4.81
62321.0,4.81
62332.0,4.82
62341.0,4.82
62351.0,4.81
62361.0,4.82
62372.0,4.82
62381.0,4.82
62391.0,4.82
62401.0,4.82
62411.0,4.82
62421.0,4.82
62431.0,4.82
62441.0,4.82
62451.0,4.82
62462.0,4.82
62471.0,4.81
62481.0,4.82
62491.0,4.82
62502.0,4.82
62511.0,4.81
62521.0,4.82
62531.0,4.82
62542.0,4.82
62551.0,4.82
62561.0,4.81
62571.0,4.73
62581.0,4.57
62591.0,4.27
62601.0,4.21
62611.0,4.04
62621.0,4.0
62632.0,3.85
62641.0,3.97
62651.0,3.78
62661.0,3.89
62672.0,3.78
62681.0,3.8
62691.0,3.62
62701.0,3.56
62712.0,3.34
62721.0,3.18
62731.0,2.96
62741.0,2.87
62751.0,2.7
62762.0,2.63
62771.0,2.5
62781.0,2.47
62791.0,2.36
62802.0,2.36
62811.0,2.3
62821.0,2.37
62831.0,2.31
62842.0,2.4
62851.0,2.34
62861.0,2.43
62871.0,2.38
62881.0,2.41
62891.0,2.39
62901.0,2.41
62911.0,2.39
62921.0,2.48
62932.0,2.45
62941.0,2.52
62951.0,2.45
62961.0,2.5
62972.0,2.43
62981.0,2.49
62991.0,2.47
63001.0,2.6
63012.0,2.67
63021.0,2.81
63031.0,2.79
63041.0,2.91
63051.0,2.87
63061.0,2.92
63071.0,2.86
63081.0,2.84
63091.0,2.72
63102.0,2.66
63111.0,2.52
63121.0,2.39
63131.0,2.28
63142.0,2.19
63151.0,2.29
63161.0,2.37
63171.0,2.72
63182.0,2.97
63191.0,3.32
63201.0,3.52
63211.0,3.8
63221.0,3.91
63231.0,4.1
63241.0,4.15
63251.0,4.38
63261.0,4.54
63272.0,4.81
63281.0,4.81
63291.0,4.82
63301.0,4.81
63312.0,4.81
63321.0,4.81
63331.0,4.82
63341.0,4.81
63352.0,4.81
63361.0,4.81
63371.0,4.81
63381.0,4.81
63391.0,4.81
63402.0,4.81
63411.0,4.81
63421.0,4.81
63431.0,4.81
63442.0,4.81
63451.0,4.82
63461.0,4.81
63471.0,4.81
63482.0,4.81
63491.0,4.73
63501.0,4.58
63511.0,4.48
63521.0,4.34
63531.0,4.25
63541.0,4.07
63551.0,4.0
63561.0,3.83
63572.0,3.78
63581.0,3.68
63591.0,3.6
63601.0,3.51
63612.0,3.44
63621.0,3.34
63631.0,3.28
63641.0,3.22
63652.0,3.19
63661.0,3.09
63671.0,3.04
63681.0,3.02
63691.0,2.93
63701.0,2.89
63711.0,2.84
63721.0,2.82
63731.0,2.76
63742.0,2.75
63751.0,2.75
63761.0,2.7
63771.0,2.69
63782.0,2.67
63791.0,2.66
63801.0,2.64
63811.0,2.61
63822.0,2.55
63831.0,2.56
63841.0,2.49
63851.0,2.47
63861.0,2.44
63871.0,2.41
63881.0,2.33
63891.0,2.38
63901.0,2.3
63912.0,2.26
63921.0,2.28
63931.0,2.34
63941.0,2.28
63952.0,2.27
63961.0,2.19
63971.0,2.24
63981.0,2.1
63992.0,2.14
64001.0,2.14
64011.0,2.37
64021.0,2.47
64031.0,2.61
64042.0,2.61
64051.0,2.68
64061.0,2.73
64071.0,2.84
64082.0,2.84
64091.0,3.05
64101.0,3.2
64111.0,3.47
64122.0,3.63
64131.0,3.95
64141.0,4.08
64151.0,4.22
64161.0,4.2
64171.0,4.36
64181.0,4.34
64191.0,4.42
64201.0,4.29
64212.0,4.18
64221.0,4.08
64231.0,3.89
64241.0,3.66
64252.0,3.47
64261.0,3.22
64271.0,3.13
64281.0,2.89
64292.0,2.81
64301.0,2.68
64311.0,2.57
64321.0,2.42
64331.0,2.4
64341.0,2.25
64351.0,2.23
64361.0,2.13
64371.0,2.25
64382.0,2.18
64391.0,2.48
64401.0,2.54
64411.0,2.89
64422.0,3.05
64431.0,3.21
64441.0,3.37
64451.0,3.56
64462.0,3.56
64471.0,3.79
64481.0,3.84
64491.0,3.96
64501.0,3.88
64511.0,4.02
64521.0,3.95
64531.0,4.06
64541.0,4.02
64552.0,4.12
64561.0,4.07
64571.0,4.15
64581.0,3.96
64592.0,3.95
64601.0,3.72
64611.0,3.62
64621.0,3.43
64632.0,3.23
64641.0,2.99
64651.0,2.93
64661.0,2.71
64671.0,2.65
64682.0,2.48
64691.0,2.52
64701.0,2.38
64711.0,2.34
64722.0,2.21
64731.0,2.21
64741.0,2.11
64751.0,2.13
64762.0,2.08
64771.0,2.21
64781.0,2.09
64791.0,2.17
64801.0,2.06
64811.0,2.11
64821.0,2.02
64831.0,2.09
64841.0,2.0
64852.0,2.1
64861.0,2.03
64871.0,2.16
64881.0,2.1
64892.0,2.21
64901.0,2.19
64911.0,2.29
64921.0,2.25
64932.0,2.39
64941.0,2.36
64951.0,2.51
64961.0,2.42
64971.0,2.58
64981.0,2.52
64991.0,2.67
65001.0,2.61
65011.0,2.76
65022.0,2.69
65031.0,2.77
65041.0,2.71
65051.0,2.78
65062.0,2.69
65071.0,2.79
65081.0,2.66
65091.0,2.74
65102.0,2.58
65111.0,2.59
65121.0,2.45
65131.0,2.46
65141.0,2.33
65151.0,2.33
65161.0,2.2
65171.0,2.23
65181.0,2.09
65192.0,2.08
65201.0,2.0
65211.0,1.94
65221.0,2.04
65232.0,2.01
65241.0,2.2
65251.0,2.26
65261.0,2.61
65272.0,2.76
65281.0,3.28
65291.0,3.54
65301.0,4.12
65311.0,4.57
65322.0,4.81
65331.0,4.81
65341.0,4.81
65351.0,4.81
65362.0,4.81
65371.0,4.81
65381.0,4.81
65391.0,4.81
65402.0,4.81
65411.0,4.81
65421.0,4.81
65431.0,4.81
65441.0,4.81
65451.0,4.82
65461.0,4.81
65471.0,4.81
65481.0,4.81
65492.0,4.81
65501.0,4.81
65511.0,4.81
65521.0,4.81
65532.0,4.82
65541.0,4.81
65551.0,4.81
65561.0,4.81
65572.0,4.82
65582.0,4.81
65591.0,4.81
65601.0,4.81
65611.0,4.81
65622.0,4.81
65631.0,4.81
65641.0,4.81
65651.0,4.81
65662.0,4.81
65671.0,4.79
65681.0,4.81
65691.0,4.6
65702.0,4.66
65711.0,4.45
65721.0,4.51
65731.0,4.33
65742.0,4.35
65752.0,4.16
65761.0,4.2
65771.0,3.97
65781.0,4.01
65792.0,3.8
65801.0,3.84
65811.0,3.65
65821.0,3.69
65832.0,3.52
65841.0,3.59
65851.0,3.42
65861.0,3.46
65872.0,3.27
65881.0,3.31
65891.0,3.13
65901.0,3.17
65912.0,3.02
65922.0,3.04
65931.0,2.9
65941.0,2.93
65951.0,2.8
65962.0,2.83
65971.0,2.71
65981.0,2.77
65991.0,2.64
66002.0,2.71
66011.0,2.61
66021.0,2.67
66031.0,2.58
66042.0,2.58
66051.0,2.51
66061.0,2.51
66071.0,2.41
66081.0,2.49
66092.0,2.41
66101.0,2.68
66111.0,2.74
66121.0,2.69
66132.0,2.5
66141.0,2.37
66151.0,2.54
66161.0,2.63
66172.0,2.85
66181.0,2.9
66191.0,3.24
66201.0,3.22
66212.0,3.48
66222.0,3.61
66231.0,3.95
66241.0,4.23
66251.0,4.72
66262.0,4.82
66271.0,4.81
66281.0,4.82
66291.0,4.82
66302.0,4.82
66311.0,4.81
66321.0,4.82
66331.0,4.82
66342.0,4.82
66351.0,4.82
66361.0,4.82
66371.0,4.81
66382.0,4.82
66392.0,4.82
66401.0,4.82
66411.0,4.82
66421.0,4.82
66432.0,4.82
66441.0,4.82
66451.0,4.82
66461.0,4.81
66472.0,4.82
66481.0,4.82
66491.0,4.82
66501.0,4.82
66512.0,4.82
66521.0,4.82
66531.0,4.82
66541.0,4.82
66552.0,4.82
66562.0,4.82
66571.0,4.82
66581.0,4.8
66591.0,4.72
66602.0,4.52
66611.0,4.44
66621.0,4.19
66631.0,4.13
66642.0,3.92
66651.0,3.81
66661.0,3.54
66671.0,3.34
66682.0,3.14
66691.0,3.12
66701.0,3.02
66711.0,3.2
66721.0,3.11
66732.0,3.34
66741.0,3.4
66751.0,3.66
66761.0,3.68
66772.0,3.95
66781.0,3.98
66791.0,4.13
66801.0,4.11
66812.0,4.25
66821.0,4.14
66831.0,4.18
66841.0,4.14
66852.0,4.16
66862.0,4.04
66871.0,4.06
66881.0,3.93
66891.0,3.95
66902.0,3.82
66911.0,3.72
66921.0,3.51
66931.0,3.47
66942.0,3.31
66951.0,3.26
66961.0,3.09
66971.0,3.04
66982.0,2.93
66991.0,2.93
67001.0,2.78
67011.0,2.7
67022.0,2.58
67032.0,2.52
67041.0,2.41
67051.0,2.35
67061.0,2.24
67072.0,2.18
67081.0,2.1
67091.0,2.06
67101.0,1.98
67112.0,1.94
67121.0,1.88
67131.0,1.83
67141.0,1.78
67152.0,1.74
67161.0,1.74
67171.0,1.68
67181.0,1.68
67192.0,1.65
67202.0,1.7
67211.0,1.71
67221.0,1.74
67231.0,1.76
67242.0,1.84
67251.0,1.85
67261.0,1.91
67271.0,1.88
67282.0,1.89
67291.0,1.83
67301.0,1.87
67311.0,1.84
67322.0,1.88
67331.0,1.91
67341.0,2.02
67351.0,2.13
67361.0,2.3
67372.0,2.33
67381.0,2.38
67391.0,2.36
67401.0,2.39
67412.0,2.33
67421.0,2.29
67431.0,2.18
67441.0,2.16
67452.0,2.06
67461.0,2.03
67471.0,1.95
67481.0,1.96
67492.0,1.93
67502.0,1.95
67511.0,1.91
67521.0,1.92
67531.0,1.88
67542.0,1.86
67551.0,1.83
67561.0,1.87
67571.0,1.83
67582.0,1.91
67591.0,1.89
67601.0,1.94
67611.0,1.93
67622.0,1.98
67631.0,1.98
67641.0,2.01
67651.0,2.0
67662.0,2.0
67672.0,1.91
67681.0,1.93
67691.0,1.87
67701.0,1.93
67712.0,1.91
67721.0,1.94
67731.0,1.92
67741.0,1.94
67752.0,1.94
67761.0,1.99
67771.0,2.06
67781.0,2.17
67792.0,2.27
67801.0,2.35
67811.0,2.44
67821.0,2.5
67832.0,2.55
67842.0,2.57
67851.0,2.52
67861.0,2.51
67871.0,2.48
67882.0,2.45
67891.0,2.43
67901.0,2.41
67911.0,2.39
67922.0,2.36
67931.0,2.31
67941.0,2.26
67951.0,2.23
67962.0,2.24
67972.0,2.2
67981.0,2.21
67991.0,2.11
68001.0,2.14
68012.0,2.08
68021.0,2.05
68031.0,2.02
68041.0,2.0
68052.0,1.96
68061.0,1.93
68071.0,1.91
68081.0,2.02
68092.0,2.05
68101.0,2.1
68111.0,2.0
68121.0,1.97
68132.0,1.98
68142.0,2.1
68151.0,2.06
68161.0,2.06
68171.0,1.97
68182.0,1.93
68191.0,1.88
68201.0,2.08
68211.0,2.15
68222.0,2.27
68231.0,2.43
68241.0,2.6
68251.0,2.54
68262.0,2.49
68272.0,2.34
68281.0,2.29
68291.0,2.19
68302.0,2.18
68312.0,2.17
68321.0,2.28
68331.0,2.46
68341.0,2.51
68352.0,2.72
68361.0,2.82
68371.0,2.93
68381.0,2.97
68392.0,2.95
68401.0,2.9
68411.0,2.87
68421.0,2.76
68432.0,2.57
68442.0,2.53
68451.0,2.43
68461.0,2.55
68472.0,2.69
68482.0,3.0
68491.0,3.24
68501.0,3.61
68511.0,3.74
68522.0,4.05
68531.0,4.14
68541.0,4.53
68551.0,4.58
68562.0,4.79
68571.0,4.81
68581.0,4.8
68591.0,4.81
68602.0,4.82
68612.0,4.81
68621.0,4.82
68631.0,4.82
68641.0,4.82
68652.0,4.82
68661.0,4.82
68671.0,4.78
68681.0,4.78
68692.0,4.49
68701.0,4.41
68711.0,4.13
68721.0,4.0
68732.0,3.7
68741.0,3.59
68751.0,3.29
68761.0,3.16
68772.0,2.92
68782.0,2.87
68791.0,2.66
68801.0,2.61
68811.0,2.42
68822.0,2.4
68831.0,2.26
68841.0,2.24
68851.0,2.1
68862.0,2.08
68871.0,1.97
68881.0,2.02
68891.0,1.94
68902.0,2.01
68912.0,1.93
68921.0,2.03
68931.0,1.96
68942.0,2.09
68952.0,2.01
68961.0,2.14
68971.0,2.09
68981.0,2.22
68992.0,2.16
69001.0,2.29
69011.0,2.23
69021.0,2.37
69032.0,2.33
69041.0,2.47
69051.0,2.44
69061.0,2.55
69072.0,2.52
69082.0,2.63
69091.0,2.58
69101.0,2.71
69112.0,2.6
69122.0,2.67
69131.0,2.56
69141.0,2.58
69151.0,2.44
69162.0,2.4
69171.0,2.28
69181.0,2.28
69191.0,2.15
69202.0,2.12
69211.0,2.02
69221.0,1.96
69231.0,2.06
69242.0,2.09
69252.0,2.35
69261.0,2.43
69271.0,2.83
69281.0,3.02
69292.0,3.44
69301.0,3.65
69311.0,4.16
69321.0,4.35
69332.0,4.76
69341.0,4.81
69351.0,4.81
69361.0,4.81
69372.0,4.81
69381.0,4.81
69391.0,4.81
69401.0,4.81
69412.0,4.81
69422.0,4.81
69431.0,4.82
69441.0,4.81
69451.0,4.81
69462.0,4.81
69471.0,4.82
69481.0,4.81
69491.0,4.81
69502.0,4.81
69511.0,4.82
69521.0,4.81
69531.0,4.81
69542.0,4.81
69552.0,4.81
69561.0,4.8
69571.0,4.81
69582.0,4.73
69592.0,4.81
69601.0,4.78
69611.0,4.81
69621.0,4.81
69632.0,4.81
69641.0,4.81
69651.0,4.81
69661.0,4.81
69672.0,4.81
69681.0,4.81
69691.0,4.81
69701.0,4.81
69712.0,4.81
69722.0,4.82
69731.0,4.81
69741.0,4.81
69752.0,4.81
69762.0,4.81
69771.0,4.81
69781.0,4.81
69791.0,4.81
69802.0,4.81
69811.0,4.81
69821.0,4.82
69831.0,4.81
69842.0,4.82
69851.0,4.81
69861.0,4.81
69871.0,4.81
69882.0,4.81
69892.0,4.81
69901.0,4.81
69911.0,4.81
69921.0,4.81
69932.0,4.81
69941.0,4.81
69951.0,4.82
69961.0,4.81
69972.0,4.81
69981.0,4.81
69991.0,4.81
70001.0,4.76
70012.0,4.8
70021.0,4.59
70031.0,4.62
70041.0,4.4
70052.0,4.46
70062.0,4.28
70071.0,4.29
70081.0,4.17
70091.0,4.23
70102.0,4.06
70111.0,4.25
70121.0,4.15
70131.0,4.24
70142.0,4.07
70151.0,4.12
70161.0,3.94
70171.0,3.73
70182.0,3.44
70192.0,3.26
70201.0,3.22
70211.0,3.09
70222.0,3.32
70232.0,3.44
70241.0,3.85
70251.0,4.07
70261.0,4.72
70272.0,4.81
70281.0,4.81
70291.0,4.82
70301.0,4.81
70312.0,4.82
70321.0,4.82
70331.0,4.82
70341.0,4.82
70352.0,4.82
70362.0,4.82
70371.0,4.82
70381.0,4.82
70392.0,4.82
70402.0,4.82
70411.0,4.82
70421.0,4.82
70431.0,4.82
70442.0,4.82
70451.0,4.82
70461.0,4.82
70471.0,4.82
70482.0,4.82
70491.0,4.81
70501.0,4.81
70511.0,4.82
70522.0,4.82
70532.0,4.82
70541.0,4.82
70551.0,4.82
70561.0,4.82
70572.0,4.82
70581.0,4.82
70591.0,4.82
70601.0,4.82
70612.0,4.82
70621.0,4.82
70631.0,4.82
70641.0,4.81
70652.0,4.82
70661.0,4.82
70671.0,4.82
70681.0,4.82
70692.0,4.82
70702.0,4.81
70711.0,4.82
70721.0,4.82
70731.0,4.81
70742.0,4.82
70751.0,4.82
70761.0,4.82
70771.0,4.82
70782.0,4.82
70791.0,4.61
70801.0,4.43
70811.0,4.07
70822.0,3.82
70832.0,3.53
70841.0,3.42
70851.0,3.2
70862.0,3.09
70872.0,2.88
70881.0,2.82
70891.0,2.64
70901.0,2.57
70912.0,2.4
70921.0,2.34
70931.0,2.19
70941.0,2.1
70952.0,2.03
70961.0,1.97
70971.0,1.93
70981.0,1.89
70992.0,1.88
71002.0,1.84
71011.0,1.84
71021.0,1.79
71032.0,1.8
71042.0,1.76
71051.0,1.8
71061.0,1.75
71071.0,1.77
71082.0,1.75
71091.0,1.77
71101.0,1.76
71111.0,1.89
71122.0,2.0
71131.0,2.26
71141.0,2.31
71151.0,2.45
71162.0,2.48
71172.0,2.6
71181.0,2.66
71191.0,3.03
71201.0,3.48
71212.0,4.06
71221.0,4.4
71231.0,4.81
71241.0,4.81
71252.0,4.81
71261.0,4.81
71271.0,4.81
71281.0,4.82
71292.0,4.82
71301.0,4.81
71311.0,4.81
71321.0,4.81
71332.0,4.81
71342.0,4.81
71351.0,4.81
71361.0,4.81
71371.0,4.81
71382.0,4.81
71391.0,4.81
71401.0,4.81
71411.0,4.81
71422.0,4.81
71431.0,4.81
71441.0,4.81
71451.0,4.81
71462.0,4.81
71472.0,4.81
71481.0,4.81
71491.0,4.81
71502.0,4.81
71512.0,4.82
71521.0,4.82
71531.0,4.81
71541.0,4.81
71552.0,4.81
71561.0,4.81
71571.0,4.81
71581.0,4.81
71592.0,4.81
71601.0,4.81
71611.0,4.81
71621.0,4.81
71632.0,4.82
71642.0,4.81
71651.0,4.81
71661.0,4.81
71672.0,4.81
71682.0,4.81
71691.0,4.81
71701.0,4.77
71711.0,4.71
71722.0,4.62
71731.0,4.55
71741.0,4.41
71751.0,4.33
71762.0,4.2
71771.0,4.1
71781.0,3.99
71791.0,3.9
71802.0,3.78
71812.0,3.71
71821.0,3.58
71831.0,3.49
71841.0,3.36
71852.0,3.28
71861.0,3.18
71871.0,3.1
71881.0,3.06
71892.0,2.99
71901.0,2.87
71911.0,2.84
71921.0,2.73
71932.0,2.68
71941.0,2.58
71951.0,2.54
71961.0,2.46
71972.0,2.42
71982.0,2.32
71991.0,2.31
72001.0,2.2
72011.0,2.18
72022.0,2.08
72031.0,2.07
72041.0,2.01
72051.0,2.03
72062.0,1.94
72071.0,1.91
72081.0,1.83
72091.0,1.85
72102.0,1.76
72112.0,1.75
72121.0,1.68
72131.0,1.74
72142.0,1.68
72152.0,1.78
72161.0,1.79
72171.0,1.83
72181.0,1.75
72192.0,1.8
72201.0,1.72
72211.0,1.77
72221.0,1.91
72232.0,2.23
72241.0,2.36
72251.0,2.56
72261.0,2.6
72272.0,2.73
72282.0,2.96
72291.0,3.3
72301.0,3.69
72312.0,4.28
72322.0,4.82
72331.0,4.82
72341.0,4.82
72351.0,4.82
72362.0,4.82
72371.0,4.82
72381.0,4.82
72391.0,4.82
72402.0,4.81
72411.0,4.69
72421.0,4.3
72431.0,4.07
72442.0,3.8
72452.0,3.63
72461.0,3.32
72471.0,3.26
72481.0,3.19
72492.0,3.49
72501.0,3.85
72511.0,4.45
72521.0,4.81
72532.0,4.82
72541.0,4.82
72551.0,4.82
72561.0,4.82
72572.0,4.82
72581.0,4.82
72591.0,4.82
72601.0,4.82
72612.0,4.82
72622.0,4.82
72631.0,4.82
72641.0,4.82
72651.0,4.82
72662.0,4.82
72671.0,4.82
72681.0,4.82
72691.0,4.82
72702.0,4.82
72712.0,4.82
72721.0,4.82
72731.0,4.82
72742.0,4.82
72752.0,4.82
72761.0,4.81
72771.0,4.82
72782.0,4.82
72792.0,4.82
72801.0,4.81
72811.0,4.63
72821.0,4.46
72832.0,4.56
72842.0,4.34
72851.0,4.35
72861.0,4.23
72872.0,4.22
72882.0,4.11
72891.0,4.11
72901.0,3.95
72912.0,3.96
72922.0,3.78
72931.0,3.73
72941.0,3.53
72952.0,3.51
72962.0,3.28
72972.0,3.27
72981.0,3.08
72991.0,3.08
73002.0,2.92
73012.0,2.95
73021.0,2.83
73031.0,2.9
73042.0,2.79
73052.0,2.86
73061.0,2.68
73071.0,2.7
73082.0,2.56
73092.0,2.6
73101.0,2.45
73111.0,2.46
73121.0,2.33
73132.0,2.39
73142.0,2.27
73151.0,2.3
73161.0,2.18
73172.0,2.17
73182.0,2.06
73191.0,2.04
73201.0,1.95
73212.0,1.91
73222.0,1.84
73231.0,1.81
73241.0,1.76
73252.0,1.75
73262.0,1.71
73271.0,1.73
73281.0,1.68
73291.0,1.68
73302.0,1.67
73312.0,1.69
73321.0,1.78
73331.0,1.79
73342.0,2.06
73352.0,2.24
73361.0,2.68
73371.0,2.94
73382.0,3.45
73392.0,3.68
73401.0,4.07
73411.0,4.34
73422.0,4.81
73432.0,4.81
73441.0,4.81
73451.0,4.82
73461.0,4.82
73472.0,4.81
73482.0,4.82
73491.0,4.81
73501.0,4.81
73512.0,4.81
73522.0,4.81
73531.0,4.81
73541.0,4.81
73552.0,4.81
73562.0,4.81
73571.0,4.81
73581.0,4.81
73592.0,4.78
73602.0,4.74
73612.0,4.49
73621.0,4.44
73631.0,4.22
73642.0,4.25
73652.0,4.08
73661.0,4.13
73671.0,3.96
73682.0,4.02
73692.0,3.86
73701.0,3.93
73711.0,3.72
73722.0,3.69
73732.0,3.48
73741.0,3.48
73751.0,3.35
73761.0,3.42
73772.0,3.28
73782.0,3.35
73791.0,3.23
73801.0,3.33
73812.0,3.17
73822.0,3.18
73831.0,2.99
73841.0,2.99
73852.0,2.82
73862.0,2.83
73871.0,2.67
73881.0,2.7
73892.0,2.56
73902.0,2.52
73911.0,2.42
73921.0,2.42
73931.0,2.31
73942.0,2.37
73952.0,2.26
73961.0,2.28
73971.0,2.18
73982.0,2.17
73992.0,2.09
74001.0,2.07
74011.0,2.01
74022.0,2.0
74032.0,1.92
74041.0,1.93
74051.0,1.86
74062.0,1.89
74072.0,1.91
74081.0,1.96
74091.0,1.89
74101.0,1.95
74112.0,1.9
74122.0,1.89
74131.0,1.85
74141.0,1.84
74152.0,1.83
74162.0,1.78
74171.0,1.88
74181.0,1.88
74192.0,2.24
74202.0,2.53
74211.0,3.24
74221.0,3.49
74232.0,4.28
74242.0,4.82
74252.0,4.82
74261.0,4.82
74271.0,4.82
74282.0,4.82
74292.0,4.82
74301.0,4.82
74311.0,4.82
74322.0,4.82
74332.0,4.82
74341.0,4.82
74351.0,4.81
74362.0,4.82
74372.0,4.82
74381.0,4.82
74391.0,4.82
74401.0,4.82
74412.0,4.82
74422.0,4.82
74431.0,4.82
74441.0,4.82
74452.0,4.82
74462.0,4.82
74471.0,4.82
74481.0,4.81
74492.0,4.81
74502.0,4.82
74511.0,4.82
74521.0,4.82
74532.0,4.82
74542.0,4.82
74551.0,4.82
74561.0,4.82
74571.0,4.82
74582.0,4.82
74592.0,4.82
74601.0,4.82
74611.0,4.82
74622.0,4.81
74632.0,4.82
74641.0,4.82
74651.0,4.82
74662.0,4.82
74672.0,4.82
74681.0,4.82
74691.0,4.82
74702.0,4.82
74712.0,4.81
74721.0,4.54
74731.0,4.36
74741.0,3.98
74752.0,3.75
74762.0,3.45
74771.0,3.27
74781.0,3.05
74792.0,2.95
74802.0,2.77
74811.0,2.81
74821.0,2.71
74832.0,2.72
74842.0,2.58
74851.0,2.6
74861.0,2.47
74872.0,2.46
74882.0,2.33
74892.0,2.32
74901.0,2.18
74911.0,2.17
74922.0,2.07
74932.0,2.04
74941.0,1.96
74951.0,1.9
74962.0,1.85
74972.0,1.86
74981.0,1.84
74991.0,1.81
75002.0,1.77
75012.0,1.75
75022.0,1.71
75031.0,1.69
75041.0,1.66
75052.0,1.66
75062.0,1.62
75071.0,1.64
75081.0,1.61
75092.0,1.66
75102.0,1.6
75111.0,1.71
75121.0,1.67
75132.0,1.68
75142.0,1.64
75151.0,1.71
75161.0,1.69
75172.0,1.74
75182.0,1.71
75192.0,1.74
75201.0,1.72
75211.0,1.85
75222.0,1.87
75232.0,2.05
75241.0,1.98
75251.0,1.97
75262.0,1.91
75272.0,1.88
75281.0,2.03
75291.0,2.09
75302.0,2.38
75312.0,2.57
75322.0,2.9
75331.0,3.08
75342.0,3.39
75352.0,3.44
75362.0,3.6
75371.0,3.52
75381.0,3.61
75392.0,3.54
75402.0,3.61
75411.0,3.5
75421.0,3.49
75432.0,3.37
75442.0,3.41
75451.0,3.28
75461.0,3.32
75472.0,3.18
75482.0,3.19
75492.0,3.08
75501.0,3.08
75512.0,3.0
75522.0,3.01
75532.0,2.9
75541.0,2.87
75551.0,2.74
75562.0,2.68
75572.0,2.54
75581.0,2.48
75591.0,2.35
75602.0,2.31
75612.0,2.21
75621.0,2.18
75631.0,2.11
75642.0,2.06
75652.0,1.98
75662.0,1.96
75671.0,1.89
75681.0,1.86
75692.0,1.8
75702.0,1.76
75711.0,1.73
75721.0,1.73
75732.0,1.67
75742.0,1.67
75751.0,1.62
75761.0,1.63
75772.0,1.63
75782.0,1.66
75791.0,1.63
75801.0,1.64
75812.0,1.62
75822.0,1.62
75832.0,1.58
75841.0,1.57
75851.0,1.53
75862.0,1.59
75872.0,1.62
75881.0,1.71
75891.0,1.72
75902.0,1.77
75912.0,1.85
75921.0,1.88
75931.0,1.91
75942.0,2.1
75952.0,2.14
75962.0,2.17
75971.0,2.28
75982.0,2.39
75992.0,2.42
76002.0,2.49
76011.0,2.55
76021.0,2.66
76032.0,2.75
76042.0,2.88
76051.0,2.98
76061.0,2.93
76072.0,2.75
76082.0,2.65
76091.0,2.78
76101.0,3.06
76112.0,3.12
76122.0,3.49
76132.0,3.59
76141.0,3.67
76152.0,3.67
76162.0,3.63
76172.0,3.4
76181.0,3.5
76191.0,4.19
76202.0,4.81
76212.0,4.81
76221.0,4.82
76231.0,4.81
76242.0,4.81
76252.0,4.81
76261.0,4.81
76271.0,4.82
76282.0,4.82
76292.0,4.82
76302.0,4.82
76311.0,4.82
76321.0,4.82
76332.0,4.82
76342.0,4.81
76351.0,4.65
76361.0,4.32
76372.0,4.11
76382.0,3.87
76391.0,3.58
76401.0,3.37
76412.0,3.21
76422.0,3.02
76431.0,2.83
76441.0,2.77
76452.0,2.71
76462.0,2.72
76472.0,2.67
76481.0,2.64
76491.0,2.56
76502.0,2.58
76512.0,2.41
76521.0,2.3
76531.0,2.17
76542.0,2.18
76552.0,2.09
76561.0,2.11
76571.0,2.03
76582.0,2.07
76592.0,1.98
76602.0,2.01
76611.0,1.93
76622.0,1.92
76632.0,1.84
76642.0,1.83
76651.0,1.77
76661.0,1.8
76672.0,1.75
76682.0,1.84
76691.0,1.87
76701.0,1.91
76712.0,1.96
76722.0,1.98
76731.0,2.03
76741.0,2.12
76752.0,2.14
76762.0,2.2
76772.0,2.22
76781.0,2.24
76792.0,2.3
76802.0,2.32
76812.0,2.39
76821.0,2.39
76831.0,2.5
76842.0,2.52
76852.0,2.61
76861.0,2.73
76871.0,2.97
76882.0,3.08
76892.0,3.34
76901.0,3.46
76911.0,3.64
76922.0,3.67
76932.0,3.8
76942.0,3.83
76951.0,3.91
76961.0,3.9
76972.0,3.93
76982.0,3.83
76991.0,3.85
77001.0,3.73
77012.0,3.7
77022.0,3.59
77031.0,3.59
77041.0,3.48
77052.0,3.49
77062.0,3.41
77071.0,3.45
77081.0,3.35
77092.0,3.41
77102.0,3.32
77112.0,3.32
77121.0,3.23
77131.0,3.2
77142.0,3.11
77152.0,3.11
77161.0,3.0
77171.0,2.93
77182.0,2.83
77192.0,2.87
77201.0,2.86
77211.0,3.13
77222.0,3.27
77232.0,3.56
77242.0,3.71
77251.0,3.9
77262.0,3.91
77272.0,4.02
77282.0,3.97
77291.0,4.01
77301.0,3.91
77312.0,3.94
77322.0,3.83
77331.0,3.88
77341.0,3.86
77352.0,3.99
77362.0,4.06
77371.0,4.27
77381.0,4.36
77392.0,4.54
77402.0,4.56
77412.0,4.71
77421.0,4.64
77432.0,4.72
77442.0,4.66
77452.0,4.68
77461.0,4.56
77471.0,4.58
77482.0,4.41
77492.0,4.41
77501.0,4.24
77511.0,4.23
77522.0,4.07
77532.0,4.05
77541.0,3.86
77551.0,3.74
77562.0,3.56
77572.0,3.46
77582.0,3.3
77591.0,3.26
77601.0,3.1
77612.0,3.01
77622.0,2.86
77631.0,2.64
77641.0,2.54
77652.0,2.4
77662.0,2.3
77671.0,2.19
77681.0,2.16
77692.0,2.09
77702.0,2.06
77711.0,1.98
77721.0,1.95
77732.0,1.86
77742.0,1.85
77752.0,1.78
77761.0,1.76
77771.0,1.72
77782.0,1.73
77792.0,1.7
77801.0,1.73
77811.0,1.66
77822.0,1.71
77832.0,1.66
77841.0,1.68
77851.0,1.62
77862.0,1.64
77872.0,1.61
77882.0,1.65
77891.0,1.63
77902.0,1.67
77912.0,1.63
77922.0,1.66
77931.0,1.62
77941.0,1.64
77952.0,1.61
77962.0,1.61
77971.0,1.57
77981.0,1.61
77992.0,1.63
78002.0,1.61
78011.0,1.6
78021.0,1.59
78032.0,1.53
78042.0,1.71
78052.0,1.84
78061.0,2.27
78072.0,2.53
78082.0,3.25
78092.0,3.63
78101.0,4.22
78111.0,4.57
78122.0,4.82
78132.0,4.82
78141.0,4.82
78151.0,4.82
78162.0,4.82
78172.0,4.82
78181.0,4.81
78191.0,4.81
78202.0,4.82
78212.0,4.82
78222.0,4.82
78231.0,4.65
78241.0,4.36
78252.0,3.99
78262.0,3.7
78271.0,3.44
78281.0,3.22
78292.0,3.12
78302.0,2.93
78311.0,2.76
78321.0,2.62
78332.0,2.45
78342.0,2.5
78351.0,2.4
78361.0,2.59
78372.0,2.43
78382.0,2.56
78392.0,2.45
78401.0,2.6
78411.0,2.46
78422.0,2.53
78432.0,2.37
78441.0,2.39
78451.0,2.29
78462.0,2.36
78472.0,2.24
78481.0,2.28
78491.0,2.19
78502.0,2.23
78512.0,2.12
78522.0,2.18
78531.0,2.09
78542.0,2.15
78552.0,2.06
78562.0,2.08
78571.0,1.99
78581.0,2.01
78592.0,1.91
78602.0,1.96
78611.0,1.89
78621.0,1.89
78632.0,1.81
78642.0,1.81
78651.0,1.78
78661.0,1.83
78672.0,1.76
78682.0,1.96
78692.0,1.99
78701.0,2.42
78712.0,2.55
78722.0,2.87
78732.0,2.86
78741.0,3.07
78751.0,3.01
78762.0,3.05
78772.0,2.9
78781.0,2.93
78791.0,2.75
78802.0,2.76
78812.0,2.6
78821.0,2.61
78831.0,2.44
78842.0,2.48
78852.0,2.35
78862.0,2.35
78871.0,2.21
78881.0,2.18
78892.0,2.09
78902.0,2.04
78911.0,1.97
78921.0,1.94
78932.0,1.94
78942.0,1.9
78951.0,2.03
78961.0,2.01
78972.0,2.23
78982.0,2.24
78992.0,2.48
79001.0,2.48
79012.0,2.76
79022.0,2.79
79032.0,3.12
79041.0,3.23
79051.0,3.56
79062.0,3.65
79072.0,4.04
79081.0,4.04
79091.0,4.3
79102.0,4.3
79112.0,4.42
79122.0,4.25
79131.0,4.35
79142.0,4.22
79152.0,4.39
79162.0,4.33
79171.0,4.49
79182.0,4.3
79192.0,4.29
79202.0,4.06
79211.0,4.13
79221.0,3.97
79232.0,3.99
79242.0,3.83
79251.0,3.84
79261.0,3.67
79272.0,3.68
79282.0,3.5
79292.0,3.44
79301.0,3.18
79312.0,3.15
79322.0,2.99
79332.0,2.89
79341.0,2.73
79352.0,2.65
79362.0,2.52
79372.0,2.5
79381.0,2.38
79391.0,2.38
79402.0,2.29
79412.0,2.34
79422.0,2.36
79431.0,2.63
79442.0,2.79
79452.0,3.22
79462.0,3.5
79471.0,4.08
79482.0,4.51
79492.0,4.81
79502.0,4.81
79511.0,4.81
79521.0,4.82
79532.0,4.81
79542.0,4.81
79551.0,4.81
79561.0,4.81
79572.0,4.81
79582.0,4.81
79592.0,4.81
79601.0,4.81
79612.0,4.81
79622.0,4.81
79632.0,4.81
79641.0,4.81
79652.0,4.81
79662.0,4.81
79672.0,4.82
79681.0,4.81
79691.0,4.81
79702.0,4.81
79712.0,4.81
79721.0,4.82
79731.0,4.81
79742.0,4.81
79752.0,4.81
79762.0,4.81
79771.0,4.81
79782.0,4.81
79792.0,4.81
79802.0,4.81
79811.0,4.81
79822.0,4.81
79832.0,4.82
79842.0,4.81
79851.0,4.82
79861.0,4.81
79872.0,4.81
79882.0,4.81
79891.0,4.81
79901.0,4.67
79912.0,4.5
79922.0,4.11
79932.0,3.87
79941.0,3.59
79952.0,3.37
79962.0,3.13
79972.0,3.03
79981.0,2.88
79992.0,2.74
80002.0,2.65
80012.0,2.53
80021.0,2.46
80031.0,2.35
80042.0,2.37
80052.0,2.43
80062.0,2.69
80071.0,2.98
80082.0,3.75
80092.0,4.32
80102.0,4.82
80111.0,4.82
80122.0,4.82
80132.0,4.81
80142.0,4.82
80151.0,4.81
80161.0,4.82
80172.0,4.82
80182.0,4.82
80191.0,4.82
80201.0,4.82
80212.0,4.81
80222.0,4.81
80232.0,4.81
80241.0,4.82
80252.0,4.82
80262.0,4.82
80272.0,4.82
80281.0,4.82
80292.0,4.81
80302.0,4.82
80312.0,4.81
80321.0,4.82
80331.0,4.82
80342.0,4.82
80352.0,4.82
80361.0,4.82
80371.0,4.82
80382.0,4.82
80392.0,4.81
80402.0,4.81
80411.0,4.65
80422.0,4.61
80432.0,4.42
80442.0,4.48
80451.0,4.57
80462.0,4.77
80472.0,4.82
80482.0,4.82
80491.0,4.81
80501.0,4.82
80512.0,4.82
80522.0,4.82
80531.0,4.82
80541.0,4.82
80552.0,4.82
80562.0,4.82
80572.0,4.81
80581.0,4.81
80592.0,4.7
80602.0,4.62
80612.0,4.45
80621.0,4.41
80632.0,4.31
80642.0,4.35
80652.0,4.32
80661.0,4.35
80671.0,4.22
80682.0,4.26
80692.0,4.1
80702.0,3.97
80711.0,3.74
80722.0,3.53
80732.0,3.31
80742.0,3.09
80751.0,2.91
80762.0,2.74
80772.0,2.63
80782.0,2.51
80791.0,2.46
80801.0,2.35
80812.0,2.32
80822.0,2.22
80831.0,2.21
80841.0,2.16
80852.0,2.15
80862.0,2.1
80872.0,2.12
80881.0,2.06
80892.0,2.09
80902.0,2.05
80912.0,2.1
80921.0,2.09
80932.0,2.1
80942.0,2.12
80952.0,2.15
80961.0,2.17
80971.0,2.24
80982.0,2.24
80992.0,2.33
81001.0,2.33
81011.0,2.42
81022.0,2.42
81032.0,2.45
81042.0,2.42
81051.0,2.41
81062.0,2.4
81072.0,2.45
81082.0,2.39
81091.0,2.41
81102.0,2.32
81112.0,2.34
81122.0,2.35
81131.0,2.47
81141.0,2.7
81152.0,2.99
81162.0,3.33
81171.0,3.69
81181.0,3.94
81192.0,4.21
81202.0,4.54
81212.0,4.81
81221.0,4.81
81232.0,4.81
81242.0,4.81
81252.0,4.82
81261.0,4.81
81272.0,4.81
81282.0,4.81
81292.0,4.81
81301.0,4.81
81311.0,4.81
81322.0,4.81
81332.0,4.81
81342.0,4.81
81351.0,4.82
81362.0,4.81
81372.0,4.81
81382.0,4.81
81391.0,4.81
81402.0,4.81
81412.0,4.81
81422.0,4.81
81431.0,4.81
81441.0,4.81
81452.0,4.81
81462.0,4.81
81471.0,4.81
81481.0,4.81
81492.0,4.81
81502.0,4.81
81512.0,4.81
81521.0,4.81
81532.0,4.81
81542.0,4.81
81552.0,4.81
81561.0,4.81
81572.0,4.81
81582.0,4.81
81592.0,4.81
81601.0,4.81
81611.0,4.81
81622.0,4.82
81632.0,4.81
81642.0,4.82
81651.0,4.81
81662.0,4.81
81672.0,4.81
81682.0,4.81
81691.0,4.81
81702.0,4.81
81712.0,4.81
81722.0,4.81
81732.0,4.81
81742.0,4.81
81752.0,4.82
81762.0,4.81
81772.0,4.81
81781.0,4.81
81792.0,4.74
81802.0,4.67
81812.0,4.49
81821.0,4.44
81832.0,4.25
81842.0,4.17
81852.0,4.01
81861.0,3.97
81872.0,3.83
81882.0,3.77
81892.0,3.67
81902.0,3.62
81912.0,3.49
81922.0,3.46
81932.0,3.32
81942.0,3.25
81951.0,3.15
81962.0,3.17
81972.0,3.08
81982.0,3.03
81991.0,2.92
82002.0,2.73
82012.0,2.72
82022.0,2.53
82031.0,2.47
82042.0,2.35
82052.0,2.51
82062.0,2.47
82072.0,2.78
82081.0,2.79
82092.0,2.92
82102.0,2.99
82112.0,3.25
82121.0,3.31
82132.0,3.73
82142.0,3.81
82152.0,4.3
82161.0,4.63
82172.0,4.81
82182.0,4.81
82192.0,4.81
82201.0,4.82
82212.0,4.81
82222.0,4.82
82232.0,4.82
82242.0,4.82
82251.0,4.82
82262.0,4.82
82272.0,4.82
82282.0,4.82
82291.0,4.82
82302.0,4.82
82312.0,4.82
82322.0,4.82
82331.0,4.81
82342.0,4.82
82352.0,4.82
82362.0,4.82
82372.0,4.82
82382.0,4.82
82392.0,4.82
82402.0,4.82
82412.0,4.81
82421.0,4.82
82432.0,4.82
82442.0,4.82
82452.0,4.82
82461.0,4.82
82472.0,4.82
82482.0,4.82
82492.0,4.82
82501.0,4.82
82512.0,4.82
82522.0,4.82
82532.0,4.82
82542.0,4.82
82552.0,4.82
82562.0,4.82
82572.0,4.82
82582.0,4.82
82591.0,4.82
82602.0,4.82
82612.0,4.82
82622.0,4.81
82631.0,4.82
82642.0,4.82
82652.0,4.82
82662.0,4.82
82671.0,4.82
82682.0,4.82
82692.0,4.82
82702.0,4.82
82712.0,4.82
82721.0,4.82
82732.0,4.82
82742.0,4.82
82752.0,4.82
82761.0,4.82
82772.0,4.81
82782.0,4.65
82792.0,4.63
82801.0,4.37
82812.0,4.35
82822.0,4.06
82832.0,3.96
82841.0,3.67
82852.0,3.54
82862.0,3.28
82872.0,3.12
82882.0,2.89
82891.0,2.8
82902.0,2.61
82912.0,2.57
82922.0,2.41
82931.0,2.4
82942.0,2.25
82952.0,2.24
82962.0,2.11
82972.0,2.06
82982.0,1.97
82992.0,1.95
83002.0,1.92
83012.0,1.87
83022.0,1.88
83032.0,1.85
83042.0,1.97
83052.0,1.97
83061.0,2.2
83072.0,2.28
83082.0,2.62
83092.0,2.85
83102.0,3.37
83112.0,3.66
83122.0,4.15
83132.0,4.34
83142.0,4.81
83152.0,4.81
83162.0,4.81
83172.0,4.81
83182.0,4.81
83192.0,4.81
83202.0,4.81
83212.0,4.81
83222.0,4.81
83231.0,4.81
83242.0,4.81
83252.0,4.81
83262.0,4.81
83272.0,4.82
83282.0,4.82
83292.0,4.81
83302.0,4.81
83312.0,4.81
83322.0,4.81
83332.0,4.81
83342.0,4.81
83352.0,4.82
83361.0,4.81
83372.0,4.81
83382.0,4.81
83392.0,4.82
83401.0,4.81
83412.0,4.81
83422.0,4.81
83432.0,4.81
83442.0,4.81
83452.0,4.81
83462.0,4.81
83472.0,4.74
83482.0,4.76
83492.0,4.57
83502.0,4.58
83512.0,4.35
83522.0,4.39
83531.0,4.15
83542.0,4.16
83552.0,3.96
83562.0,3.99
83572.0,3.78
83582.0,3.82
83592.0,3.64
83602.0,3.65
83612.0,3.44
83622.0,3.48
83632.0,3.28
83642.0,3.35
83652.0,3.16
83662.0,3.19
83672.0,3.02
83682.0,3.02
83692.0,2.84
83701.0,2.74
83712.0,2.57
83722.0,2.54
83732.0,2.4
83742.0,2.37
83752.0,2.24
83762.0,2.21
83772.0,2.1
83782.0,2.1
83792.0,2.02
83802.0,2.06
83812.0,1.97
83822.0,2.01
83832.0,1.95
83842.0,1.99
83852.0,1.92
83862.0,1.96
83871.0,1.9
83882.0,1.92
83892.0,1.85
83902.0,1.9
83912.0,1.82
83922.0,1.88
83932.0,1.85
83942.0,1.91
83952.0,1.86
83962.0,1.87
83972.0,1.81
83982.0,1.8
83992.0,1.75
84001.0,1.78
84012.0,1.73
84022.0,1.76
84032.0,1.73
84041.0,1.77
84052.0,1.76
84062.0,1.77
84072.0,1.73
84082.0,1.75
84092.0,1.71
84102.0,1.8
84112.0,1.75
84122.0,1.84
84132.0,1.78
84142.0,1.84
84152.0,1.84
84162.0,1.81
84171.0,1.76
84182.0,1.79
84192.0,1.76
84202.0,1.81
84212.0,1.76
84222.0,1.69
84232.0,1.79
84242.0,1.72
84252.0,1.77
84262.0,1.71
84272.0,1.77
84282.0,1.73
84292.0,1.78
84302.0,1.74
84312.0,1.74
84322.0,1.73
84332.0,1.71
84341.0,1.71
84352.0,1.72
84362.0,1.77
84372.0,1.72
84382.0,1.71
84392.0,1.7
84402.0,1.75
84412.0,1.7
84422.0,1.72
84432.0,1.7
84442.0,1.72
84452.0,1.71
84462.0,1.67
84472.0,1.68
84482.0,1.63
84492.0,1.69
84502.0,1.64
84511.0,1.72
84522.0,1.67
84532.0,1.85
84542.0,1.8
84552.0,1.9
84562.0,1.87
84572.0,1.99
84582.0,1.99
84592.0,2.2
84602.0,2.17
84612.0,2.41
84622.0,2.39
84632.0,2.54
84641.0,2.53
84652.0,2.73
84662.0,2.71
84672.0,2.83
84681.0,2.77
84692.0,2.94
84702.0,2.83
84712.0,2.94
84722.0,2.82
84732.0,2.87
84742.0,2.71
84752.0,2.68
84762.0,2.52
84772.0,2.45
84782.0,2.33
84792.0,2.27
84802.0,2.17
84811.0,2.21
84822.0,2.14
84832.0,2.33
84842.0,2.35
84852.0,2.47
84862.0,2.46
84872.0,2.61
84882.0,2.57
84892.0,2.67
84902.0,2.53
84912.0,2.52
84922.0,2.38
84932.0,2.31
84942.0,2.22
84952.0,2.17
84962.0,2.1
84972.0,2.04
84981.0,2.0
84992.0,1.94
85002.0,1.94
85012.0,1.86
85022.0,1.9
85032.0,1.85
85042.0,1.91
85052.0,1.88
85062.0,1.9
85072.0,1.88
85082.0,1.9
85092.0,1.86
85102.0,1.93
85112.0,1.87
85122.0,1.93
85132.0,1.85
85142.0,1.93
85152.0,1.88
85162.0,1.87
85172.0,1.85
85182.0,1.83
85192.0,1.78
85202.0,1.78
85212.0,1.73
85222.0,1.73
85232.0,1.7
85242.0,1.69
85252.0,1.71
85262.0,1.8
85272.0,1.87
85281.0,2.07
85292.0,2.06
85302.0,2.23
85312.0,2.24
85322.0,2.36
85332.0,2.34
85342.0,2.41
85352.0,2.37
85362.0,2.44
85372.0,2.39
85382.0,2.43
85392.0,2.33
85402.0,2.36
85412.0,2.25
85422.0,2.24
85432.0,2.14
85442.0,2.13
85451.0,2.03
85462.0,2.0
85472.0,1.95
85482.0,1.94
85492.0,1.88
85502.0,1.88
85512.0,1.83
85522.0,1.83
85532.0,1.78
85542.0,1.79
85552.0,1.75
85562.0,1.75
85572.0,1.74
85582.0,1.78
85592.0,1.75
85602.0,1.81
85612.0,1.76
85621.0,1.8
85632.0,1.77
85642.0,1.8
85652.0,1.78
85662.0,1.79
85672.0,1.75
85682.0,1.76
85692.0,1.72
85702.0,1.73
85712.0,1.67
85722.0,1.69
85732.0,1.65
85742.0,1.66
85752.0,1.63
85762.0,1.6
85772.0,1.6
85782.0,1.58
85792.0,1.57
85802.0,1.58
85812.0,1.56
85822.0,1.59
85832.0,1.57
85842.0,1.59
85852.0,1.58
85862.0,1.58
85872.0,1.56
85882.0,1.58
85892.0,1.56
85902.0,1.56
85912.0,1.55
85921.0,1.6
85932.0,1.58
85942.0,1.61
85952.0,1.6
85962.0,1.6
85972.0,1.59
85982.0,1.61
85992.0,1.61
86002.0,1.64
86012.0,1.63
86022.0,1.7
86032.0,1.69
86042.0,1.73
86052.0,1.7
86062.0,1.73
86072.0,1.69
86082.0,1.64
86091.0,1.62
86102.0,1.67
86112.0,1.65
86122.0,1.71
86132.0,1.72
86142.0,1.82
86152.0,2.0
86162.0,2.23
86172.0,2.68
86182.0,3.02
86192.0,3.28
86202.0,3.52
86212.0,3.73
86222.0,3.91
86232.0,4.36
86242.0,4.75
86252.0,4.82
86261.0,4.82
86272.0,4.81
86282.0,4.81
86292.0,4.81
86302.0,4.82
86312.0,4.82
86322.0,4.77
86332.0,4.54
86342.0,4.33
86352.0,4.13
86362.0,3.96
86372.0,3.86
86382.0,3.83
86392.0,3.9
86402.0,4.1
86412.0,4.26
86422.0,4.5
86432.0,4.57
86442.0,4.73
86452.0,4.82
86462.0,4.82
86472.0,4.82
86482.0,4.82
86492.0,4.82
86502.0,4.82
86512.0,4.82
86522.0,4.81
86532.0,4.82
86542.0,4.82
86552.0,4.82
86561.0,4.82
86572.0,4.82
86582.0,4.82
86592.0,4.82
86602.0,4.82
86612.0,4.82
86622.0,4.82
86632.0,4.81
86642.0,4.82
86652.0,4.82
86662.0,4.82
86672.0,4.82
86682.0,4.81
86692.0,4.82
86702.0,4.82
86712.0,4.82
86722.0,4.81
86731.0,4.82
86742.0,4.82
86752.0,4.71
86762.0,4.43
86772.0,4.04
86782.0,3.84
86792.0,3.54
86802.0,3.44
86812.0,3.22
86822.0,3.18
86832.0,2.97
86842.0,2.9
86852.0,2.7
86862.0,2.63
86872.0,2.45
86882.0,2.33
86892.0,2.19
86901.0,2.17
86912.0,2.14
86922.0,2.16
86932.0,2.06
86942.0,2.09
86952.0,2.05
86962.0,2.06
86972.0,2.04
86982.0,2.03
86992.0,2.01
87002.0,2.03
87012.0,2.0
87022.0,2.02
87032.0,1.95
87042.0,1.96
87052.0,1.88
87062.0,1.91
87072.0,1.82
87082.0,1.86
87092.0,1.76
87102.0,1.76
87112.0,1.68
87122.0,1.72
87132.0,1.67
87142.0,1.73
87152.0,1.65
87162.0,1.64
87172.0,1.86
87182.0,2.17
87192.0,2.78
87201.0,3.4
87212.0,4.43
87222.0,4.81
87232.0,4.81
87242.0,4.81
87252.0,4.82
87262.0,4.81
87272.0,4.82
87282.0,4.81
87292.0,4.82
87302.0,4.81
87312.0,4.82
87322.0,4.81
87332.0,4.81
87342.0,4.81
87352.0,4.81
87362.0,4.81
87371.0,4.81
87382.0,4.81
87392.0,4.81
87402.0,4.81
87412.0,4.81
87422.0,4.81
87432.0,4.81
87442.0,4.81
87452.0,4.81
87462.0,4.81
87472.0,4.81
87482.0,4.81
87492.0,4.81
87502.0,4.81
87512.0,4.81
87522.0,4.81
87532.0,4.81
87541.0,4.81
87552.0,4.81
87562.0,4.82
87572.0,4.82
87582.0,4.81
87592.0,4.81
87602.0,4.81
87612.0,4.81
87622.0,4.81
87632.0,4.81
87642.0,4.82
87652.0,4.82
87662.0,4.81
87672.0,4.81
87682.0,4.75
87692.0,4.64
87702.0,4.49
87712.0,4.42
87722.0,4.26
87732.0,4.2
87742.0,4.03
87752.0,4.01
87762.0,3.83
87772.0,3.75
87782.0,3.56
87792.0,3.48
87802.0,3.34
87812.0,3.29
87822.0,3.16
87832.0,3.1
87841.0,3.0
87852.0,2.95
87862.0,2.83
87872.0,2.79
87882.0,2.67
87892.0,2.62
87902.0,2.52
87912.0,2.49
87922.0,2.4
87932.0,2.37
87942.0,2.3
87952.0,2.28
87962.0,2.22
87972.0,2.2
87982.0,2.15
87992.0,2.13
88002.0,2.08
88011.0,2.08
88022.0,2.04
88032.0,1.99
88042.0,1.98
88052.0,2.13
88062.0,2.09
88072.0,2.21
88082.0,2.18
88092.0,2.38
88102.0,2.29
88112.0,2.17
88122.0,2.1
88132.0,2.07
88142.0,2.37
88152.0,2.39
88162.0,2.57
88172.0,2.54
88181.0,2.62
88192.0,2.5
88202.0,2.47
88212.0,2.31
88222.0,2.45
88232.0,2.49
88242.0,2.74
88252.0,2.89
88262.0,3.33
88272.0,3.77
88282.0,4.69
88292.0,4.82
88302.0,4.82
88312.0,4.82
88322.0,4.82
88332.0,4.82
88342.0,4.82
88352.0,4.82
88362.0,4.82
88372.0,4.82
88382.0,4.82
88392.0,4.82
88402.0,4.82
88412.0,4.82
88422.0,4.82
88432.0,4.82
88442.0,4.82
88452.0,4.82
88462.0,4.82
88472.0,4.82
88481.0,4.82
88492.0,4.82
88502.0,4.82
88512.0,4.82
88522.0,4.82
88532.0,4.82
88542.0,4.82
88552.0,4.82
88562.0,4.82
88572.0,4.82
88582.0,4.82
88592.0,4.81
88602.0,4.82
88612.0,4.82
88622.0,4.82
88632.0,4.82
88642.0,4.82
88651.0,4.82
88662.0,4.82
88672.0,4.82
88682.0,4.82
88692.0,4.82
88702.0,4.82
88712.0,4.82
88722.0,4.82
88732.0,4.82
88742.0,4.82
88752.0,4.82
88762.0,4.82
88772.0,4.82
88782.0,4.82
88792.0,4.82
88802.0,4.82
88812.0,4.82
88821.0,4.82
88832.0,4.82
88842.0,4.82
88852.0,4.82
88862.0,4.82
88872.0,4.68
88882.0,4.54
88892.0,4.21
88902.0,4.14
88912.0,3.89
88922.0,3.85
88932.0,3.62
88942.0,3.62
88952.0,3.42
88962.0,3.52
88972.0,3.28
88982.0,3.3
88992.0,3.12
89002.0,3.16
89012.0,2.97
89022.0,2.95
89032.0,2.74
89042.0,2.75
89052.0,2.59
89062.0,2.54
89072.0,2.4
89082.0,2.33
89092.0,2.26
89102.0,2.16
89112.0,2.18
89121.0,2.16
89132.0,2.52
89142.0,2.72
89152.0,3.48
89162.0,3.92
89172.0,4.67
89182.0,4.82
89192.0,4.81
89202.0,4.81
89212.0,4.81
89222.0,4.81
89232.0,4.81
89242.0,4.81
89252.0,4.81
89262.0,4.81
89272.0,4.81
89282.0,4.81
89291.0,4.81
89302.0,4.81
89312.0,4.81
89322.0,4.81
89332.0,4.81
89342.0,4.81
89352.0,4.81
89362.0,4.81
89372.0,4.81
89382.0,4.81
89392.0,4.81
89402.0,4.81
89412.0,4.81
89422.0,4.81
89432.0,4.82
89442.0,4.81
89452.0,4.82
89461.0,4.81
89472.0,4.81
89482.0,4.82
89492.0,4.81
89502.0,4.81
89512.0,4.81
89522.0,4.81
89532.0,4.81
89542.0,4.81
89552.0,4.81
89562.0,4.81
89572.0,4.81
89582.0,4.65
89592.0,4.69
89602.0,4.52
89612.0,4.57
89622.0,4.36
89632.0,4.44
89642.0,4.24
89652.0,4.33
89662.0,4.14
89672.0,4.23
89682.0,4.06
89692.0,4.1
89702.0,3.93
89712.0,3.97
89722.0,3.8
89732.0,3.89
89742.0,3.73
89752.0,3.79
89761.0,3.62
89772.0,3.71
89782.0,3.54
89792.0,3.54
89802.0,3.42
89812.0,3.48
89822.0,3.29
89832.0,3.34
89842.0,3.18
89852.0,3.25
89862.0,3.09
89872.0,3.15
89882.0,3.0
89892.0,3.02
89902.0,2.87
89912.0,2.88
89922.0,2.76
89931.0,2.81
89942.0,2.67
89952.0,2.69
89962.0,2.57
89972.0,2.64
89982.0,2.51
89992.0,2.55
90002.0,2.43
90012.0,2.45
90022.0,2.32
90032.0,2.38
90042.0,2.27
90052.0,2.28
90062.0,2.17
90072.0,2.18
90082.0,2.11
90092.0,2.14
90101.0,2.05
90112.0,2.14
90122.0,2.1
90132.0,2.11
90142.0,1.99
90152.0,1.94
90162.0,1.93
90172.0,1.86
90182.0,1.89
90192.0,1.84
90202.0,1.99
90212.0,1.91
90222.0,2.19
90232.0,2.19
90242.0,2.44
90252.0,2.42
90262.0,2.66
90272.0,2.62
90282.0,2.74
90292.0,2.63
90302.0,2.63
90312.0,2.5
90322.0,2.52
90332.0,2.39
90342.0,2.36
90352.0,2.23
90362.0,2.38
90372.0,2.37
90382.0,2.64
90392.0,2.72
90403.0,2.93
90412.0,2.96
90422.0,3.16
90432.0,3.11
90442.0,3.26
90452.0,3.15
90462.0,3.36
90472.0,3.4
90482.0,3.6
90492.0,3.65
90502.0,3.91
90512.0,3.91
90522.0,4.2
90533.0,4.28
90542.0,4.59
90552.0,4.63
90562.0,4.82
90572.0,4.81
90582.0,4.82
90592.0,4.82
90602.0,4.82
90612.0,4.82
90622.0,4.82
90632.0,4.82
90642.0,4.82
90652.0,4.82
90662.0,4.82
90672.0,4.82
90682.0,4.82
90692.0,4.82
90703.0,4.75
90712.0,4.36
90722.0,4.19
90732.0,3.91
90742.0,3.88
90752.0,3.68
90762.0,3.72
90772.0,3.62
90782.0,3.7
90792.0,3.58
90802.0,3.64
90812.0,3.55
90822.0,3.57
90832.0,3.5
90842.0,3.54
90852.0,3.36
90862.0,3.35
90873.0,3.19
90882.0,3.12
90892.0,2.96
90902.0,2.91
90912.0,2.77
90922.0,2.76
90932.0,2.6
90942.0,2.56
90952.0,2.42
90962.0,2.39
90972.0,2.27
90982.0,2.24
90992.0,2.14
91003.0,2.14
91012.0,2.05
91022.0,2.08
91032.0,2.01
91043.0,2.06
91052.0,1.98
91062.0,2.02
91072.0,1.95
91082.0,1.93
91092.0,1.88
91102.0,1.83
91112.0,1.76
91122.0,1.76
91132.0,1.73
91142.0,1.74
91152.0,1.71
91162.0,1.69
91173.0,1.71
91182.0,1.69
91192.0,1.69
91202.0,1.65
91212.0,1.67
91222.0,2.01
91232.0,3.0
91242.0,4.26
91252.0,4.81
91262.0,4.81
91272.0,4.82
91282.0,4.82
91292.0,4.81
91302.0,4.81
91312.0,4.81
91322.0,4.81
91332.0,4.81
91343.0,4.82
91352.0,4.82
91362.0,4.81
91372.0,4.82
91382.0,4.81
91392.0,4.82
91402.0,4.54
91412.0,4.26
91422.0,3.92
91432.0,3.7
91442.0,3.41
91452.0,3.23
91462.0,3.01
91472.0,2.88
91482.0,2.74
91492.0,2.65
91502.0,2.52
91513.0,2.43
91522.0,2.33
91532.0,2.29
91542.0,2.22
91552.0,2.23
91562.0,2.14
91572.0,2.16
91582.0,2.08
91592.0,2.12
91602.0,2.03
91612.0,2.01
91622.0,1.94
91632.0,1.94
91643.0,1.86
91652.0,1.87
91662.0,1.81
91672.0,1.83
91683.0,1.79
91692.0,1.78
91702.0,1.76
91712.0,1.73
91722.0,1.69
91732.0,1.71
91742.0,1.7
91752.0,1.73
91762.0,1.69
91772.0,1.71
91782.0,1.68
91792.0,1.69
91802.0,1.65
91813.0,1.64
91822.0,1.62
91832.0,1.65
91842.0,1.63
91852.0,1.65
91862.0,1.62
91872.0,1.67
91882.0,1.64
91892.0,1.64
91902.0,1.6
91912.0,1.63
91922.0,1.6
91932.0,1.63
91942.0,1.59
91952.0,1.64
91962.0,1.61
91972.0,1.7
91983.0,1.77
91992.0,1.74
92002.0,1.67
92012.0,1.7
92022.0,1.67
92032.0,1.77
92042.0,1.87
92052.0,1.98
92062.0,2.29
92072.0,2.36
92082.0,2.55
92092.0,2.51
92102.0,2.5
92112.0,2.46
92122.0,2.56
92132.0,2.53
92142.0,2.78
92153.0,2.83
92162.0,2.78
92172.0,2.67
92182.0,2.69
92192.0,2.76
92202.0,2.83
92212.0,2.96
92222.0,3.1
92232.0,3.47
92242.0,3.79
92252.0,4.19
92262.0,4.14
92272.0,4.08
92283.0,3.78
92292.0,3.58
92302.0,3.32
92312.0,3.18
92323.0,2.98
92332.0,2.92
92342.0,2.94
92352.0,3.04
92362.0,3.1
92372.0,3.39
92382.0,3.57
92392.0,3.79
92402.0,3.97
92412.0,4.15
92422.0,4.37
92432.0,4.66
92442.0,4.81
92453.0,4.81
92462.0,4.82
92472.0,4.82
92482.0,4.82
92492.0,4.82
92502.0,4.82
92512.0,4.82
92522.0,4.82
92532.0,4.82
92542.0,4.82
92552.0,4.82
92562.0,4.82
92572.0,4.82
92582.0,4.82
92592.0,4.82
92602.0,4.82
92612.0,4.82
92623.0,4.82
92632.0,4.82
92642.0,4.82
92652.0,4.82
92662.0,4.82
92672.0,4.81
92682.0,4.82
92692.0,4.79
92702.0,4.63
92712.0,4.53
92722.0,4.36
92732.0,4.28
92742.0,4.1
92752.0,3.98
92762.0,3.79
92772.0,3.67
92782.0,3.45
92793.0,3.37
92802.0,3.13
92812.0,3.03
92822.0,2.88
92832.0,2.85
92842.0,2.73
92852.0,2.77
92862.0,2.68
92872.0,2.74
92882.0,2.67
92892.0,2.71
92902.0,2.7
92912.0,2.71
92923.0,2.63
92932.0,2.66
92942.0,2.61
92952.0,2.67
92963.0,2.61
92972.0,2.68
92982.0,2.58
92992.0,2.6
93002.0,2.45
93012.0,2.38
93022.0,2.6
93032.0,3.09
93042.0,3.7
93052.0,4.42
93062.0,4.81
93072.0,4.81
93082.0,4.81
93093.0,4.82
93102.0,4.81
93112.0,4.81
93122.0,4.81
93132.0,4.81
93142.0,4.81
93152.0,4.81
93162.0,4.81
93172.0,4.81
93182.0,4.81
93192.0,4.81
93202.0,4.46
93212.0,4.1
93222.0,3.77
93232.0,3.54
93242.0,3.28
93252.0,3.12
93263.0,2.91
93272.0,2.8
93282.0,2.63
93292.0,2.55
93302.0,2.39
93312.0,2.34
93322.0,2.22
93332.0,2.16
93342.0,2.09
93352.0,2.07
93362.0,2.02
93372.0,2.04
93382.0,2.03
93392.0,2.02
93402.0,2.01
93412.0,1.95
93422.0,2.01
93433.0,1.99
93442.0,2.07
93452.0,2.07
93462.0,2.11
93472.0,2.09
93482.0,2.18
93492.0,2.15
93502.0,2.17
93512.0,2.14
93522.0,2.17
93532.0,2.16
93542.0,2.21
93552.0,2.18
93563.0,2.19
93572.0,2.17
93582.0,2.13
93592.0,2.16
93603.0,2.17
93612.0,2.17
93622.0,2.27
93632.0,2.26
93642.0,2.35
93652.0,2.32
93662.0,2.39
93672.0,2.42
93682.0,2.47
93692.0,2.44
