4.89902,4.06
4.99902,4.48
0.09902,4.33
4.19902,4.71
4.29902,4.36
4.39902,4.37
4.49902,4.24
4.59902,4.25
4.69902,4.15
4.79902,4.13
4.89902,4.06
4.99902,4.48
0.09902,4.81
0.19902,4.23
0.299024,4.26
0.39902,4.22
0.49902,4.21
0.59902,4.39
0.69902,4.81
0.79902,4.81
0.89902,4.81
0.99902,4.78
1.09902,4.6
1.19902,4.55
1.29902,4.51
1.39902,4.41
1.49902,4.44
1.59902,4.37
1.69902,4.36
1.79902,4.25
1.89902,4.25
1.99902,4.81
2.09902,4.81
2.19902,4.54
2.29902,4.4
2.39902,4.27
2.49902,4.35
2.59902,4.32
2.69902,4.23
2.79902,4.2
2.89902,4.81
2.99902,4.55
3.09902,4.31
3.19902,4.22
3.29902,4.28
3.39902,4.16
3.499024,4.08
3.59902,3.91
3.69902,3.67
3.79902,3.71
3.89902,3.49
3.99902,4.33
4.09902,4.33
4.19902,3.95
4.29902,3.62
4.39902,3.7
4.49902,3.41
4.59902,3.37
4.69902,3.45
4.79902,3.4
4.89902,3.47
4.99902,3.32
5.09902,3.24
5.19902,3.17
5.29902,3.33
5.39902,3.28
5.49902,3.34
5.59902,3.4
5.69902,3.39
5.79902,3.43
5.89902,3.52
5.99902,3.58
6.09902,3.4
6.19902,3.36
6.29902,3.35
6.39902,4.81
6.49902,4.81
6.59902,4.81
6.699024,4.81
6.79902,4.81
6.89902,4.81
6.99902,4.36
7.09902,3.33
7.19902,2.57
7.29902,2.0
7.39902,1.57
7.49902,1.25
7.59902,0.99
7.69902,0.79
7.79902,0.63
7.89902,0.51
7.99902,0.41
8.09902,0.34
8.19902,0.28
8.29902,0.24
8.39902,0.21
8.49902,0.18
8.59902,0.16
8.69902,0.14
8.79902,0.12
8.89902,0.11
8.99902,0.1
9.09902,0.09
9.19902,0.08
9.29902,0.08
9.39902,0.07
9.49902,0.07
9.59902,0.06
9.69902,0.06
9.79902,0.06
9.899024,0.06
9.99902,0.06
10.09902,0.06
10.19902,0.06
10.29902,0.06
10.39902,0.07
10.49902,0.06
10.59902,0.07
10.69902,0.06
10.79902,0.06
10.89902,0.07
10.99902,0.07
11.09902,0.06
11.19902,0.07
11.29902,0.06
11.39902,0.06
11.49902,0.06
11.59902,0.06
11.69902,0.06
11.79902,0.06
11.89902,0.06
11.99902,0.06
12.09902,0.06
12.19902,0.06
12.29902,0.06
12.39902,0.06
12.49902,0.06
12.59902,0.06
12.69902,0.06
12.79902,0.06
12.89902,0.06
12.99902,0.06
13.099024,0.06
13.19902,0.06
13.29902,0.06
13.39902,0.06
13.49902,0.06
13.59902,0.06
13.69902,0.06
13.79902,0.06
13.89902,0.06
13.99902,0.07
14.09902,0.06
14.19902,0.06
14.29902,0.07
14.39902,0.07
14.49902,0.07
14.59902,0.06
14.69902,0.06
14.79902,0.06
14.89902,0.06
14.99902,0.07
15.09902,0.07
15.19902,0.06
15.29902,0.06
15.39902,0.06
15.49902,0.06
15.59902,0.06
15.69902,0.06
15.79902,0.06
15.89902,0.06
15.99902,0.07
16.09902,0.06
16.19902,0.06
16.299024,0.07
16.39902,0.06
16.49902,0.06
16.59902,0.06
16.69902,0.07
16.79902,0.06
16.89902,0.07
16.99902,0.06
17.09902,0.06
17.19902,0.07
17.29902,0.07
17.39902,0.07
17.49902,0.07
17.59902,0.06
17.69902,0.06
17.79902,0.06
17.89902,0.06
17.99902,0.06
18.09902,0.06
18.19902,0.07
18.29902,0.06
18.39902,0.07
18.49902,0.07
18.59902,0.07
18.69902,0.07
18.79902,0.07
18.89902,0.07
18.99902,0.06
19.09902,0.06
19.19902,0.07
19.29902,0.07
19.39902,0.06
19.499024,0.06
19.59902,0.06
19.69902,0.06
19.79902,0.06
19.89902,0.06
19.99902,0.06
20.09902,0.06
20.19902,0.06
20.29902,0.06
20.39902,0.06
20.49902,0.07
20.59902,0.07
20.69902,0.07
20.79902,0.07
20.89902,0.07
20.99902,0.07
21.09902,0.06
21.19902,0.07
21.29902,0.07
21.39902,0.06
21.49902,0.07
21.59902,0.07
21.69902,0.06
21.79902,0.07
21.89902,0.07
21.99902,0.07
22.09902,0.07
22.19902,0.07
22.29902,0.07
22.39902,0.07
22.49902,0.06
22.59902,0.06
22.699024,0.06
22.79902,0.06
22.89902,0.07
22.99902,0.06
23.09902,0.06
23.19902,0.07
23.29902,0.07
23.39902,0.07
23.49902,0.07
23.59902,0.07
23.69902,0.08
23.79902,0.07
23.89902,0.07
23.99902,0.07
24.09902,0.07
24.19902,0.07
24.29902,0.06
24.39902,0.07
24.49902,0.07
24.59902,0.06
24.69902,0.06
24.79902,0.06
24.89902,0.06
24.999024,0.06
25.099028,0.06
25.199028,0.06
25.299028,0.06
25.399028,0.06
25.499028,0.07
25.599028,0.07
25.699028,0.07
25.799028,0.07
25.899028,0.07
25.999028,0.07
26.099028,0.07
26.199028,0.06
26.299028,0.06
26.399028,0.06
26.499028,0.06
26.599028,0.06
26.699028,0.06
26.799028,0.07
26.899028,0.06
26.999028,0.07
27.099028,0.06
27.199028,0.06
27.299028,0.07
27.399028,0.08
27.499028,0.09
27.599028,0.09
27.699028,0.08
27.799028,0.15
27.899028,0.2
27.999028,0.11
28.099028,0.1
28.199028,0.13
28.299028,0.13
28.399028,0.1
28.499028,0.08
28.599028,0.07
28.699028,0.06
28.799028,0.07
28.899028,0.06
28.999028,0.06
29.099028,0.13
29.199028,0.36
29.299028,0.77
29.399028,1.15
29.499028,1.37
29.599028,1.77
29.699028,2.86
29.799028,2.65
29.899028,1.52
29.999028,0.95
30.099028,0.65
30.199028,0.46
30.299028,0.27
30.399028,0.18
30.499028,0.13
30.599028,0.18
30.699028,0.16
30.799028,0.09
30.899028,0.07
30.999028,0.06
31.099028,0.06
31.199028,0.06
31.299028,0.06
31.399028,0.06
31.499028,0.07
31.599028,0.07
31.699028,0.07
31.799028,0.07
31.899028,0.06
31.999028,0.07
32.099028,0.07
32.199028,0.06
32.299028,0.06
32.399028,0.07
32.499028,0.07
32.599028,0.06
32.699028,0.06
32.799028,0.06
32.899028,0.06
32.999028,0.06
33.099028,0.07
33.199028,0.06
33.299028,0.07
33.399028,0.07
33.499028,0.06
33.599028,0.07
33.699028,0.06
33.799028,0.07
33.899028,0.07
33.999028,0.06
34.099028,0.06
34.199028,0.07
34.299028,0.06
34.399028,0.07
34.499028,0.07
34.599028,0.06
34.699028,0.07
34.799032,0.07
34.899036,0.07
34.999036,0.07
35.099036,0.06
35.199036,0.07
35.299036,0.07
35.399036,0.07
35.499036,0.07
35.599036,0.06
35.699036,0.07
35.799036,0.06
35.899036,0.06
35.999036,0.07
36.099036,0.06
36.199036,0.07
36.299036,0.07
36.399036,0.07
36.499036,0.07
36.599036,0.07
36.699036,0.07
36.799036,0.07
36.899036,0.07
36.999036,0.06
37.099036,0.06
37.199036,0.07
37.299036,0.06
37.399036,0.07
37.499036,0.07
37.599036,0.06
37.699036,0.07
37.799036,0.07
37.899036,0.07
37.999036,0.06
38.099036,0.06
38.199036,0.07
38.299036,0.06
38.399036,0.07
38.499036,0.06
38.599036,0.07
38.699036,0.06
38.799036,0.07
38.899036,0.07
38.999036,0.07
39.099036,0.06
39.199036,0.07
39.299036,0.07
39.399036,1.04
39.499036,0.77
39.599036,0.34
39.699036,0.18
39.799036,0.22
39.899036,0.24
39.999036,0.24
40.099036,0.22
40.199036,0.21
40.299036,0.18
40.399036,0.14
40.499036,0.11
40.599036,0.09
40.699036,0.07
40.799036,0.07
40.899036,0.06
40.999036,0.06
41.099036,0.06
41.199036,0.07
41.299036,0.07
41.399036,0.07
41.499036,0.07
41.599036,0.07
41.699036,0.07
41.799036,0.07
41.899036,0.07
41.999036,0.07
42.099036,0.07
42.199036,0.06
42.299036,0.06
42.399036,0.07
42.499036,0.06
42.599036,0.06
42.699036,0.07
42.799036,0.07
42.899036,0.07
42.999036,0.06
43.099036,0.06
43.199036,0.06
43.299036,0.06
43.399036,0.07
43.499036,0.06
43.599036,0.07
43.699036,0.07
43.799036,0.07
43.899036,0.06
43.999036,0.06
44.099036,0.06
44.199036,0.06
44.299036,0.06
44.399036,0.06
44.499036,0.06
44.599036,0.06
44.699036,0.06
44.799036,0.06
44.899036,0.06
44.999036,0.06
45.099036,4.22
45.199036,4.81
45.299036,4.81
45.399052,4.81
45.499044,4.81
45.599044,4.81
45.699044,4.81
45.799044,4.81
45.899044,4.81
45.999044,4.81
46.099044,4.81
46.199044,4.81
46.299044,4.81
46.399044,4.81
46.499044,4.81
46.599044,4.81
46.699044,4.81
46.799044,4.74
46.899044,4.81
46.999044,4.81
47.099044,4.81
47.199044,4.81
47.299044,4.82
47.399044,4.82
47.499044,4.81
47.599044,4.81
47.699044,4.82
47.799044,4.81
47.899044,3.96
47.999044,2.92
48.099044,2.18
48.199044,1.66
48.299044,1.27
48.399044,0.97
48.499044,0.75
48.599052,0.58
48.699044,0.45
48.799044,0.36
48.899044,0.29
48.999044,0.25
49.099044,4.82
49.199044,4.82
49.299044,4.81
49.399044,4.81
49.499044,4.81
49.599044,4.81
49.699044,4.81
49.799044,4.82
49.899044,4.81
49.999044,4.82
50.099044,4.82
50.199044,4.81
50.299044,4.82
50.399044,4.82
50.499044,4.82
50.599044,4.82
50.699044,4.82
50.799044,4.82
50.899044,4.82
50.999044,4.82
51.099044,4.24
51.199044,3.13
51.299044,2.32
51.399044,1.74
51.499044,1.31
51.599044,0.99
51.699044,0.76
51.799052,0.58
51.899044,0.44
51.999044,0.35
52.099044,0.28
52.199044,0.22
52.299044,0.19
52.399044,0.16
52.499044,0.13
52.599044,0.12
52.699044,0.1
52.799044,0.09
52.899044,0.08
52.999044,0.08
53.099044,0.07
53.199044,0.07
53.299044,0.07
53.399048,0.07
53.499052,0.07
53.599052,0.07
53.699052,0.07
53.799052,0.07
53.899052,0.07
53.999052,0.06
54.099052,0.06
54.199052,0.06
54.299052,0.06
54.399052,0.06
54.499052,0.43
54.599052,0.21
54.699052,0.13
54.799052,0.09
54.899052,0.07
54.999056,0.06
55.099052,0.06
55.199052,0.06
55.299052,0.06
55.399052,3.31
55.499052,4.81
55.599052,4.81
55.699052,4.82
55.799052,4.82
55.899052,4.82
55.999052,4.82
56.099052,4.78
56.199052,3.42
56.299052,2.46
56.399052,1.78
56.499052,1.29
56.599052,0.94
56.699052,0.68
56.799052,0.5
56.899052,0.37
56.999052,0.27
57.099052,0.22
57.199052,0.16
57.299052,0.13
57.399052,0.1
57.499052,0.09
57.599052,0.07
57.699052,0.07
57.799052,0.07
57.899052,0.07
57.999052,0.07
58.099052,0.07
58.199056,0.07
58.299052,0.07
58.399052,0.07
58.499052,0.07
58.599052,0.07
58.699052,0.07
58.799052,0.06
58.899052,0.06
58.999052,0.07
59.099052,0.06
59.199052,3.87
59.299052,4.81
59.399052,4.82
59.499052,4.82
59.599052,4.82
59.699052,4.71
59.799052,3.34
59.899052,2.38
59.999052,1.7
60.099052,1.22
60.199052,0.87
60.299052,0.63
60.399052,0.45
60.499052,0.33
60.599052,0.24
60.699052,0.19
60.799052,0.14
60.899052,0.11
60.999052,0.09
61.099052,0.07
61.199052,0.07
61.299052,0.06
61.399056,0.07
61.499052,0.07
61.599052,0.07
61.699052,0.07
61.799052,0.07
61.899052,0.07
61.999052,0.07
62.099052,0.07
62.199052,0.07
62.299052,0.07
62.399052,0.07
62.499052,0.06
62.599052,0.07
62.699052,0.07
62.799052,0.07
62.899052,0.07
62.999052,0.06
63.099052,0.07
63.199052,0.06
63.299052,0.07
63.399052,0.06
63.499052,0.06
63.599052,0.06
63.699052,0.07
63.799052,0.06
63.899052,0.06
63.999052,0.06
64.099052,0.07
64.199052,0.07
64.299052,0.06
64.399052,0.06
64.499052,0.06
64.599056,0.06
64.699052,0.07
64.799052,0.06
64.899052,0.06
64.999052,0.07
65.099052,0.07
65.199052,0.07
65.299052,0.06
65.399052,0.06
65.499052,0.07
65.599052,0.06
65.699052,0.07
65.799052,0.06
65.899052,0.07
65.999052,0.07
66.099052,0.06
66.199052,0.07
66.299052,0.06
66.399052,0.07
66.499052,0.07
66.599052,0.07
66.699052,0.07
66.799052,0.07
66.899052,0.06
66.999052,0.06
67.099052,0.07
67.199052,0.07
67.299052,0.07
67.399052,0.06
67.499052,0.06
67.599052,0.07
67.699052,0.06
67.799056,0.06
67.899052,0.06
67.999052,0.06
68.099052,0.06
68.199052,0.07
68.299052,0.06
68.399052,0.07
68.499052,0.07
68.599052,0.07
68.699052,0.07
68.799052,0.07
68.899052,0.07
68.999052,0.07
69.099052,0.07
69.199052,0.07
69.299052,0.07
69.399052,0.07
69.499052,0.07
69.599052,0.07
69.699052,0.07
69.799052,0.07
69.899052,0.07
69.999052,0.07
70.099052,0.07
70.199052,0.07
70.299052,0.07
70.399052,0.33
70.499052,4.81
70.599052,4.81
70.699052,4.81
70.799052,4.82
70.899052,4.82
70.999056,4.82
71.099052,4.81
71.199052,4.62
71.299052,3.33
71.399052,2.39
71.499052,1.72
71.599052,1.25
71.699052,0.89
71.799052,0.65
71.899052,0.47
71.999052,0.34
72.099052,0.25
72.199052,0.19
72.299052,0.15
72.399052,0.11
72.499052,0.09
72.599052,0.08
72.699052,0.07
72.799052,0.06
72.899052,0.06
72.999052,0.06
73.099052,0.07
73.199052,0.07
73.299052,0.07
73.399052,0.07
73.499052,0.07
73.599052,0.06
73.699052,0.06
73.799052,0.06
73.899052,0.06
73.999052,0.06
74.099052,0.06
74.199056,0.06
74.299052,0.06
74.399052,0.06
74.499052,0.06
74.599052,0.07
74.699052,0.07
74.799052,0.07
74.899052,0.07
74.999052,0.07
75.099052,0.07
75.199052,0.07
75.299052,0.07
75.399052,0.07
75.499052,0.07
75.599052,0.07
75.699052,0.07
75.799052,0.07
75.899052,0.07
75.999052,0.07
76.099052,0.07
76.199052,0.06
76.299052,0.07
76.399052,0.07
76.499052,0.07
76.599052,0.07
76.699052,0.07
76.799052,0.07
76.899052,0.07
76.999052,0.06
77.099052,0.07
77.199052,0.07
77.299052,0.07
77.399056,0.07
77.499052,0.07
77.599052,0.07
77.699052,0.07
77.799052,0.06
77.899052,0.07
77.999052,0.07
78.099052,0.07
78.199052,0.07
78.299052,0.07
78.399052,0.07
78.499052,0.07
78.599052,0.07
78.699052,0.07
78.799052,0.06
78.899052,0.07
78.999052,0.07
79.099052,0.06
79.199052,0.06
79.299052,0.07
79.399052,0.07
79.499052,0.07
79.599052,0.07
79.699052,0.07
79.799052,0.07
79.899052,0.07
79.999052,0.07
80.099052,0.06
80.199052,0.07
80.299052,0.06
80.399052,0.07
80.499052,0.07
80.599056,0.06
80.699052,0.06
80.799052,0.06
80.899052,0.06
80.999052,0.06
81.099052,0.06
81.199052,0.06
81.299052,0.07
81.399052,4.81
81.499052,4.81
81.599052,4.81
81.699052,4.81
81.799052,4.82
81.899052,4.82
81.999052,4.82
82.099052,4.82
82.199052,4.82
82.299052,4.82
82.399052,4.82
82.499052,4.82
82.599052,4.82
82.699052,4.82
82.799052,4.82
82.899052,4.82
82.999052,4.82
83.099052,4.82
83.199052,4.81
83.299052,4.82
83.399052,3.69
83.499052,2.76
83.599052,2.09
83.699052,1.59
83.799056,1.22
83.899052,0.93
83.999052,0.71
84.099052,0.55
84.199052,0.43
84.299052,0.34
84.399052,0.27
84.499052,0.22
84.599052,0.19
84.699052,0.16
84.799052,0.13
84.899052,0.12
84.999052,0.1
85.099052,0.09
85.199052,0.08
85.299052,0.07
85.399052,0.07
85.499052,0.07
85.599052,4.82
85.699052,4.82
85.799052,4.82
85.899052,4.82
85.999052,4.82
86.099052,4.82
86.199052,4.82
86.299052,4.82
86.399052,4.81
86.499052,4.81
86.599052,4.81
86.699052,4.81
86.799052,4.82
86.899052,4.81
86.999056,4.82
87.099052,4.82
87.199052,4.81
87.299052,4.81
87.399052,4.81
87.499052,4.81
87.599052,4.81
87.699052,4.81
87.799052,4.81
87.899052,4.81
87.999052,4.82
88.099052,4.81
88.199052,4.82
88.299052,4.81
88.399052,4.82
88.499052,4.81
88.599052,4.82
88.699052,4.81
88.799052,4.82
88.899052,4.82
88.999052,4.82
89.099052,4.82
89.199052,4.82
89.299052,4.81
89.399052,4.81
89.499052,4.82
89.599052,4.82
89.699052,4.81
89.799052,4.81
89.899052,4.82
89.999052,4.82
90.099052,4.82
90.199056,4.81
90.299052,4.81
90.399052,4.82
90.499052,4.81
90.599052,4.81
90.699052,4.82
90.799052,4.82
90.899052,4.82
90.999052,4.81
91.099052,4.82
91.199052,4.81
91.299052,4.81
91.399052,4.81
91.499052,4.81
91.599052,4.81
91.699052,4.81
91.799052,4.81
91.899052,4.81
91.999052,4.81
92.099052,4.81
92.199052,4.81
92.299052,4.27
92.399052,3.69
92.499052,3.58
92.599052,3.43
92.699052,3.4
92.799052,3.31
92.899052,3.41
92.999052,3.29
93.099052,3.32
93.199052,3.26
93.299052,3.26
93.399056,3.34
93.499052,3.35
93.599052,3.42
93.699052,3.43
93.799052,3.79
93.899052,3.45
93.999052,3.18
94.099052,3.02
94.199052,3.0
94.299052,3.05
94.399052,3.17
94.499052,3.24
94.599052,3.3
94.699052,3.27
94.799052,3.49
94.899052,3.43
94.999052,3.38
95.099052,3.57
95.199052,3.93
95.299052,4.81
95.399052,4.81
95.499052,4.81
95.599052,4.81
95.699052,4.81
95.799052,4.81
95.899052,4.5
95.999052,3.57
96.099052,3.08
96.199052,2.96
96.299052,2.99
96.399052,3.46
96.499052,3.3
96.599056,3.6
96.699052,3.63
96.799052,3.48
96.899052,3.25
96.999052,2.97
97.099052,2.91
97.199052,2.97
97.299052,3.4
97.399052,3.7
97.499052,3.82
97.599052,3.7
97.699052,3.65
97.799052,3.62
97.899052,3.74
97.999052,3.63
98.099052,3.57
98.199052,3.52
98.299052,3.53
98.399052,3.45
98.499052,3.66
98.599052,3.84
98.699052,3.73
98.799052,3.72
98.899052,3.79
98.999052,3.77
99.099052,3.74
99.199052,3.79
99.299052,3.68
99.399052,3.71
99.499052,3.7
99.599052,3.69
99.699052,3.49
99.799056,3.49
99.899052,3.5
99.999052,3.12
100.099052,3.08
100.19906,3.14
100.29906,3.26
100.39906,3.65
100.49906,3.35
100.59906,2.54
100.699068,2.39
100.799076,2.89
100.899076,2.97
100.999076,2.67
101.099076,2.24
101.199076,2.2
101.299076,2.35
101.399076,2.46
101.499076,2.55
101.599076,2.65
101.699076,2.83
101.799076,2.93
101.899084,3.03
101.999084,3.0
102.099084,3.05
102.199084,3.12
102.299084,3.06
102.399084,3.01
102.499084,2.96
102.599084,2.92
102.699092,2.9
102.7991,2.87
102.8991,2.94
102.9991,2.9
103.0991,2.88
103.1991,2.81
103.2991,2.74
103.3991,2.61
103.4991,2.68
103.5991,2.74
103.6991,2.7
103.7991,2.69
103.899108,2.77
103.999116,2.67
104.099116,2.63
104.199116,2.62
104.299116,2.72
104.399116,2.6
104.499116,2.75
104.599116,2.58
104.699116,2.68
104.799124,2.93
104.899132,3.25
104.999132,3.14
105.099136,3.05
105.19914,3.15
105.29914,3.25
105.39914,3.3
105.49914,3.39
105.59914,3.47
105.69914,3.44
105.79914,3.33
105.89914,3.3
105.99914,3.34
106.09914,3.29
106.19914,3.28
106.29914,3.44
106.39914,3.5
106.49914,3.54
106.59914,3.64
106.69914,3.59
106.799148,3.62
106.899156,3.79
106.999156,3.43
107.099156,3.29
107.199156,3.37
107.299156,3.44
107.399156,3.31
107.499156,3.5
107.599156,3.52
107.699164,3.54
107.799172,3.57
107.899172,3.85
107.999172,3.77
108.099172,3.71
108.199172,3.84
108.29918,3.81
108.399188,3.84
108.499188,3.64
108.599188,3.57
108.699188,3.45
108.799188,3.29
108.899188,3.23
108.999188,3.15
109.099188,3.15
109.199188,3.0
109.299188,2.86
109.399188,2.82
109.499196,2.87
109.599196,3.13
109.699196,3.41
109.799196,4.1
109.899196,4.43
109.999196,4.04
110.099196,3.7
110.199196,3.21
110.299204,2.83
110.399212,2.64
110.499212,2.71
110.599212,2.84
110.699212,3.08
110.799212,2.99
110.899216,2.84
110.999212,2.91
111.099212,3.06
111.199212,2.92
111.299212,2.81
111.399212,2.83
111.49922,3.1
111.599228,3.12
111.699228,3.46
111.799236,4.81
111.899236,4.81
111.999236,4.81
112.099236,4.81
112.199244,4.8
112.299244,3.81
112.399244,2.92
112.499244,2.14
112.599244,1.83
112.699244,1.92
112.799244,2.24
112.899244,2.13
112.999252,2.03
113.099252,1.96
113.199252,2.04
113.299252,2.06
113.399252,2.05
113.499252,2.0
113.599252,4.81
113.699252,4.81
113.799252,4.81
113.899252,4.81
113.999252,4.81
114.099252,4.81
114.199252,3.08
114.299252,2.31
114.39926,2.7
114.499268,3.29
114.599268,3.65
114.699276,3.75
114.799268,3.81
114.899268,3.55
114.999276,3.28
115.099284,3.06
115.199284,2.99
115.299284,2.86
115.399284,2.74
115.499284,2.65
115.599284,3.84
115.699284,4.69
115.799284,4.4
115.899292,4.19
115.9993,3.91
116.0993,3.68
116.1993,3.33
116.2993,4.81
116.3993,4.81
116.4993,4.45
116.5993,3.58
116.6993,3.51
116.799308,3.61
116.899308,4.81
116.999308,4.81
117.099308,4.81
117.199308,4.81
117.299308,4.68
117.399308,3.67
117.499308,4.81
117.599308,4.81
117.699308,4.81
117.799308,4.81
117.899308,4.81
117.999308,4.81
118.099308,4.81
118.199316,4.81
118.299324,4.81
118.399324,4.81
118.499324,4.81
118.599324,4.81
118.699324,4.81
118.799324,4.59
118.899324,4.1
118.999324,4.25
119.099332,4.4
119.19934,4.07
119.29934,3.62
119.399344,3.11
119.499348,2.84
119.599348,2.73
119.699348,2.83
119.799356,2.93
119.899356,2.92
119.999356,2.99
120.099356,2.95
120.199356,3.05
120.299356,2.98
120.399356,3.0
120.499356,3.0
120.599356,3.02
120.699356,3.05
120.799356,3.06
120.899356,3.08
120.999356,3.09
121.099356,3.16
121.199364,3.17
121.299364,3.15
121.399364,3.26
121.499364,3.57
121.599364,4.2
121.699364,4.5
121.799364,4.81
121.899364,4.81
121.999376,4.81
122.09938,4.81
122.19938,4.81
122.29938,4.81
122.39938,4.36
122.49938,3.78
122.59938,3.34
122.69938,2.99
122.79938,2.66
122.89938,2.39
122.99938,2.12
123.09938,1.83
123.199388,1.77
123.299388,1.72
123.399388,1.69
123.499388,1.64
123.599388,1.56
123.699396,1.5
123.799404,1.48
123.899404,1.5
123.999404,1.49
124.099404,1.5
124.199404,1.44
124.299404,1.4
124.399404,1.29
124.499404,1.28
124.599404,1.17
124.699404,0.97
124.799404,0.82
124.899404,1.14
124.999404,0.9
125.099404,0.67
125.199412,0.54
125.299412,0.43
125.399412,0.36
125.499412,0.29
125.599412,0.23
125.699412,0.19
125.799412,0.16
125.899412,0.13
125.999412,0.11
126.099412,0.09
126.199412,0.08
126.299412,0.08
126.399412,0.07
126.499412,0.07
126.599412,0.06
126.699412,0.06
126.799412,0.06
126.899412,0.07
126.99942,0.07
127.09942,0.07
127.19942,0.07
127.29942,0.07
127.39942,0.06
127.49942,0.07
127.59942,0.06
127.69942,0.06
127.79942,0.07
127.89942,0.07
127.99942,0.06
128.09942,0.06
128.19942,0.07
128.29942,0.06
128.399428,0.06
128.499436,0.07
128.599436,0.06
128.699436,0.06
128.799436,0.06
128.899436,0.06
128.999444,0.06
129.099452,0.06
129.199452,0.06
129.299452,0.06
129.399452,2.2
129.499452,4.81
129.599452,4.81
129.699452,4.81
129.799452,4.57
129.89946,3.31
129.999468,3.09
130.099468,3.79
130.199468,4.13
130.299468,4.03
130.399468,3.68
130.499476,3.37
130.599484,3.2
130.699484,2.97
130.799484,3.12
130.899484,3.04
130.999492,3.02
131.099492,3.03
131.199492,3.03
131.299492,3.03
131.399492,3.03
131.499492,3.11
131.599492,3.13
131.699492,3.15
131.799492,3.12
131.899492,3.13
131.999492,3.1
132.099492,3.06
132.1995,3.08
132.299504,3.05
132.399508,3.01
132.499508,3.04
132.599508,3.05
132.699508,3.0
132.799508,3.0
132.899508,3.02
132.999508,3.04
133.099508,3.05
133.199508,3.07
133.299508,3.03
133.399516,3.0
133.499524,3.02
133.599524,3.0
133.699524,2.99
133.799524,2.99
133.899524,2.9
133.999524,2.91
134.099524,2.87
134.199524,2.86
134.299524,2.81
134.399524,2.7
134.499524,2.7
134.599532,2.61
134.699532,2.58
134.799532,2.58
134.899532,2.55
134.999532,2.55
135.099532,2.54
135.199532,2.57
135.299532,2.48
135.39954,2.49
135.499548,2.44
135.599548,2.33
135.699548,2.06
135.799548,2.02
135.899548,2.07
135.999548,1.85
136.099548,1.78
136.199548,1.76
136.299548,1.8
136.399548,1.71
136.499548,1.74
136.599548,1.74
136.699548,1.82
136.799548,1.76
136.899548,1.85
136.999548,1.8
137.099548,1.75
137.199556,1.72
137.299556,1.72
137.399556,1.7
137.499556,1.7
137.599556,1.75
137.699556,1.71
137.799556,1.67
137.899556,1.64
137.999564,1.64
138.099572,1.69
138.199572,1.73
138.299572,1.74
138.399572,1.7
138.499572,1.58
138.59958,1.53
138.699588,1.52
138.799588,1.57
138.899588,1.49
138.999588,1.43
139.099588,1.44
139.199588,1.45
139.299588,1.4
139.399588,1.24
139.499588,1.25
139.599588,1.2
139.699588,1.14
139.799596,1.08
139.899604,1.06
139.999604,1.06
140.099604,1.06
140.199604,1.09
140.299604,1.09
140.399612,1.11
140.499612,1.07
140.599612,1.11
140.699612,1.09
140.79962,1.07
140.89962,1.04
140.99962,1.1
141.09962,1.06
141.19962,1.07
141.29962,1.01
141.39962,0.98
141.49962,1.0
141.599628,0.93
141.699628,0.91
141.799628,0.94
141.899628,0.96
141.999628,0.97
142.099628,0.97
142.199628,0.94
142.299628,0.97
142.399628,0.96
142.499628,0.99
142.599628,0.99
142.699636,1.02
142.799644,1.12
142.899644,1.06
142.999644,1.01
143.099644,0.95
143.199644,0.99
143.299648,1.0
143.399652,1.0
143.499652,0.98
143.599652,1.0
143.69966,0.97
143.79966,0.98
143.899664,0.95
143.99966,1.02
144.09966,1.02
144.199668,1.07
144.299676,1.1
144.399676,1.13
144.499676,1.12
144.599676,1.13
144.699676,1.09
144.799676,1.08
144.899676,1.11
144.999676,1.09
145.099684,1.12
145.199692,1.17
145.299692,1.22
145.399692,1.21
145.499692,1.64
145.599692,1.55
145.699692,2.31
145.799692,2.82
145.899692,3.0
145.9997,3.3
146.099708,3.52
146.199716,3.45
146.299716,3.35
146.399716,3.27
146.499716,3.11
146.599716,3.04
146.699716,2.82
146.799716,2.98
146.899716,2.81
146.999716,2.73
147.099716,2.65
147.199716,2.58
147.299716,2.55
147.399716,2.5
147.499716,2.43
147.599716,2.38
147.699724,2.35
147.799716,2.34
147.899716,2.33
147.999716,2.29
148.099716,2.46
148.199716,2.64
148.299724,2.89
148.399732,2.86
148.499732,2.83
148.599732,2.94
148.699732,3.06
148.799732,3.47
148.899732,3.42
148.999732,3.54
149.099732,3.57
149.19974,3.58
149.29974,3.42
149.39974,3.49
149.49974,3.34
149.59974,3.22
149.69974,3.21
149.79974,3.23
149.89974,3.2
149.99974,3.17
150.09974,3.15
150.19974,3.27
150.29974,3.32
150.39974,3.43
150.49974,3.58
150.599748,3.76
150.699748,3.84
150.799748,3.56
150.899748,3.83
150.999748,3.61
151.099748,3.36
151.199756,3.2
151.299748,3.17
151.399748,3.23
151.499748,3.15
151.599748,3.17
151.699748,3.17
151.799748,3.28
151.899748,3.29
151.999748,3.28
152.099748,3.27
152.199748,3.2
152.299748,3.28
152.399748,3.26
152.499748,3.27
152.599748,3.25
152.699756,3.26
152.799756,3.47
152.899756,3.36
152.999756,3.39
153.099756,3.58
153.199756,3.48
153.299756,3.53
153.399756,3.52
153.499756,3.29
153.599756,3.1
153.699756,2.95
153.799764,3.0
153.899772,3.1
153.999772,3.05
154.099772,3.03
154.199772,3.04
154.299772,2.75
154.399772,2.69
154.499772,3.05
154.599772,3.11
154.699772,3.13
154.799772,3.08
154.899772,3.09
154.99978,3.04
155.09978,3.01
155.19978,2.96
155.29978,2.89
155.39978,2.86
155.49978,2.95
155.59978,3.07
155.69978,3.09
155.79978,3.37
155.89978,3.49
155.99978,3.18
156.099784,3.06
156.199788,2.96
156.299788,2.98
156.399788,2.94
156.499788,2.85
156.599788,2.99
156.699788,3.03
156.799788,2.95
156.899788,3.2
156.999788,3.7
157.099788,4.33
157.199788,3.43
157.299788,4.81
157.399788,4.81
157.499788,4.81
157.599788,4.81
157.699788,4.81
157.799788,4.81
157.899796,4.81
157.999796,4.81
158.099796,4.81
158.199796,4.81
158.299804,4.81
158.399804,4.81
158.499804,4.81
158.599804,4.81
158.699804,4.81
158.799804,4.81
158.899804,4.41
158.999804,4.19
159.099812,3.91
159.19982,3.7
159.29982,3.39
159.39982,3.27
159.49982,4.81
159.59982,4.81
159.69982,4.81
159.79982,4.81
159.89982,4.81
159.99982,4.81
160.09982,4.81
160.19982,4.81
160.299828,4.81
160.399828,4.81
160.499828,4.81
160.599828,4.76
160.699828,4.81
160.799828,4.48
160.899828,4.34
160.999828,4.28
161.099836,3.69
161.199844,3.21
161.299844,3.08
161.399844,3.31
161.499844,3.9
161.599844,4.15
161.699852,3.62
161.799844,3.84
161.899844,4.81
161.999852,4.81
162.09986,4.81
162.19986,4.81
162.29986,4.81
162.39986,3.92
162.49986,3.13
162.59986,2.75
162.69986,2.85
162.79986,3.57
162.89986,3.5
162.99986,3.42
163.09986,3.57
163.199868,3.82
163.299868,4.81
163.399868,4.81
163.499868,4.81
163.599868,4.81
163.699868,4.81
163.799868,4.81
163.899868,4.81
163.999876,4.81
164.099884,4.81
164.199884,4.81
164.299892,4.81
164.3999,4.81
164.4999,4.81
164.5999,4.81
164.6999,4.81
164.7999,4.81
164.8999,4.81
164.9999,4.81
165.0999,4.81
165.1999,4.81
165.2999,4.81
165.3999,4.81
165.4999,4.81
165.5999,4.81
165.6999,4.81
165.799908,4.81
165.899916,4.81
165.999916,4.81
166.099916,4.81
166.199916,4.81
166.299916,4.8
166.399916,4.56
166.499916,4.41
166.599916,4.25
166.699924,4.24
166.799932,4.81
166.899932,4.29
166.999932,3.37
167.099932,3.28
167.199932,3.52
167.299932,3.68
167.399932,3.84
167.499932,3.78
167.59994,4.81
167.69994,4.81
167.79994,4.81
167.89994,4.81
167.99994,4.81
168.09994,4.81
168.19994,4.81
168.29994,3.94
168.399948,3.73
168.499956,3.95
168.599956,4.1
168.699956,4.18
168.799956,4.81
168.899956,3.76
168.999956,3.22
169.099956,3.15
169.199956,2.75
169.299956,2.31
169.399956,2.74
169.499956,2.6
169.599964,2.39
169.699972,2.55
169.799972,3.51
169.899972,2.87
169.999972,2.76
170.099972,2.53
170.19998,2.46
170.299988,2.25
170.399988,2.14
170.499988,2.12
170.599988,2.05
170.699988,2.09
170.799988,2.51
170.899988,3.37
170.999988,4.21
171.099988,4.81
171.199988,4.81
171.299988,4.81
171.399996,4.6
171.499996,3.48
171.599996,2.69
171.699996,2.25
171.799996,2.57
171.899996,2.49
171.999996,2.18
172.099996,2.14
172.200004,2.07
172.300012,2.09
172.400012,2.17
172.500012,2.24
172.600012,2.22
172.700012,2.14
172.800016,2.16
172.900012,2.19
173.000012,2.16
173.10002,2.06
173.200028,1.88
173.300028,3.62
173.400028,4.81
173.500028,4.81
173.600028,4.81
173.700036,4.81
173.800044,4.81
173.900044,4.81
174.000044,4.81
174.100044,4.82
174.200044,4.72
174.300044,3.93
174.400044,3.12
174.500044,2.98
174.600052,3.22
174.700052,2.61
174.800052,2.51
174.900052,2.67
175.000052,2.75
175.100052,2.79
175.200052,2.78
175.300052,2.86
175.400052,2.79
175.500052,2.79
175.600052,2.71
175.700052,2.65
175.800052,4.81
175.900052,4.81
176.000052,4.81
176.100052,4.81
176.200052,4.81
176.30006,4.81
176.400068,4.81
176.500068,4.81
176.600076,4.81
176.700068,4.31
176.800068,2.87
176.900076,2.49
177.000084,2.25
177.100084,2.16
177.200084,2.22
177.300084,2.12
177.400084,2.04
177.500084,2.12
177.600084,2.17
177.700084,2.47
177.800092,2.2
177.9001,2.01
178.0001,1.99
178.1001,1.96
178.2001,2.2
178.3001,3.84
178.4001,2.7
178.5001,2.73
178.6001,4.27
178.700108,4.58
178.800108,3.01
178.900108,2.54
179.000108,2.27
179.100108,2.45
179.200108,4.81
179.300108,4.81
179.400108,4.81
179.500108,4.81
179.600108,4.81
179.700108,4.81
179.800108,4.81
179.900108,4.79
180.000108,3.62
180.100116,3.27
180.200124,3.33
180.300124,3.85
180.400124,4.29
180.500124,4.44
180.600124,4.81
180.700132,4.81
180.80014,4.81
180.90014,4.81
181.00014,4.81
181.10014,4.81
181.20014,4.05
181.30014,4.42
181.40014,3.86
181.50014,3.57
181.60014,3.3
181.70014,2.77
181.80014,2.4
181.900148,2.05
182.000148,1.91
182.100148,2.08
182.200148,2.4
182.300148,2.59
182.400148,2.74
182.500148,2.67
182.600148,2.72
182.700156,2.88
182.800156,2.62
182.900156,3.26
183.000156,4.82
183.100164,4.37
183.200164,3.63
183.300164,2.72
183.400164,2.25
183.500164,2.17
183.600164,2.73
183.700164,2.83
183.800164,2.84
183.900176,3.27
184.00018,3.06
184.10018,2.74
184.20018,2.43
184.30018,2.25
184.40018,2.17
184.500188,2.06
184.600196,1.96
184.700196,2.4
184.800196,2.96
184.900196,2.23
185.000196,2.31
185.100196,2.86
185.200196,3.36
185.300196,3.29
185.400196,3.2
185.500196,2.84
185.600196,2.68
185.700204,2.54
185.800204,2.58
185.900204,2.54
186.000204,2.49
186.100204,2.4
186.200204,2.37
186.300204,2.57
186.400204,2.79
186.500212,2.42
186.60022,2.13
186.70022,2.34
186.80022,2.87
186.90022,2.82
187.00022,2.54
187.10022,2.34
187.20022,2.23
187.30022,2.3
187.40022,2.19
187.50022,2.13
187.60022,2.1
187.70022,2.03
187.80022,2.34
187.90022,2.93
188.000228,3.26
188.100228,2.8
188.200228,2.29
188.300228,2.56
188.400228,2.55
188.500228,2.39
188.600228,2.16
188.700228,2.03
188.800228,2.08
188.900228,1.99
189.000228,2.04
189.100236,1.97
189.200236,2.05
189.300236,2.15
189.400236,2.45
189.500236,2.96
189.600236,2.9
189.700236,3.07
189.800236,4.05
189.900236,4.81
190.000236,3.84
190.100236,3.23
190.200236,2.47
190.300236,2.12
190.400236,2.05
190.500236,2.2
190.600236,2.41
190.700236,2.45
190.800236,2.49
190.900244,2.35
191.000252,2.32
191.100252,2.21
191.200252,2.19
191.300252,2.23
191.400252,2.17
191.500252,2.14
191.600252,2.13
191.700252,2.1
191.800252,2.14
191.900252,2.0
192.000252,2.74
192.10026,2.7
192.200268,2.6
192.300268,3.84
192.400268,4.5
192.500268,4.64
192.600268,4.0
192.700276,3.26
192.800276,3.33
192.900276,3.09
193.000276,2.84
193.100276,2.6
193.200276,2.45
193.300276,2.26
193.400276,2.26
193.500276,2.2
193.600276,2.12
193.700276,2.31
193.800276,2.09
193.900276,2.11
194.000276,2.0
194.100284,1.96
194.200292,1.93
194.300292,2.26
194.400292,4.32
194.500292,2.87
194.600292,2.34
194.7003,2.21
194.800292,2.16
194.900292,2.34
195.0003,2.49
195.100308,2.53
195.200308,2.37
195.300308,2.38
195.400308,2.51
195.500308,2.44
195.600308,2.24
195.700308,2.14
195.800308,2.23
195.900308,2.34
196.000308,2.24
196.100308,2.33
196.200316,2.18
196.300316,2.19
196.400316,2.67
196.500316,2.95
196.600316,2.35
196.700316,2.53
196.800316,3.13
196.900316,3.48
197.000324,3.52
197.100332,3.15
197.200332,2.84
197.300332,2.53
197.400332,2.29
197.500332,2.12
197.600332,2.1
197.700332,1.97
197.800332,1.98
197.90034,2.0
198.000348,1.96
198.100348,2.0
198.200348,1.97
198.300348,1.98
198.400348,1.95
198.500348,2.21
198.600348,3.49
198.700348,4.81
198.800356,4.81
198.900364,3.11
199.000364,2.57
199.100364,3.2
199.200364,3.13
199.300364,2.7
199.400364,2.4
199.500364,2.3
199.600364,2.17
199.700372,2.5
199.80038,2.43
199.90038,2.26
200.00038,2.15
200.10038,2.11
200.20038,2.02
200.300388,2.09
200.400388,1.99
200.500388,1.95
200.600388,3.38
200.700388,3.64
200.800388,3.18
200.900388,3.36
201.000388,3.24
201.100388,2.62
201.200388,2.17
201.300388,1.98
201.400388,2.0
201.500388,1.94
201.600388,2.27
201.700396,3.21
201.800404,2.68
201.900404,2.79
202.000404,2.47
202.100404,2.13
202.200404,2.02
202.300404,2.0
202.400404,2.06
202.500404,2.13
202.600412,2.61
202.70042,3.07
202.80042,4.81
202.90042,4.81
203.00042,3.52
203.10042,2.83
203.20042,2.35
203.30042,2.21
203.40042,2.14
203.500428,2.1
203.600428,2.15
203.700428,2.1
203.800428,2.17
203.900428,2.19
204.000428,2.22
204.100428,2.15
204.200428,2.19
204.300428,2.17
204.400428,2.31
204.500428,2.09
204.600428,2.04
204.700428,2.98
204.800428,4.64
204.900436,3.06
205.000436,2.42
205.100436,2.23
205.200436,2.31
205.300436,2.25
205.400436,2.31
205.500436,2.34
205.600436,2.26
205.700436,2.37
205.800436,2.63
205.900436,2.6
206.000436,2.46
206.100436,2.12
206.200436,1.97
206.300436,1.79
206.400436,1.74
206.500436,1.72
206.600436,4.24
206.700444,4.35
206.800452,3.28
206.900452,2.57
207.000452,2.23
207.100452,2.22
207.200452,2.25
207.300452,2.18
207.400452,2.33
207.500452,2.38
207.600452,2.3
207.700452,2.69
207.800452,2.57
207.90046,2.4
208.00046,2.35
208.10046,2.29
208.20046,2.54
208.30046,4.81
208.40046,4.81
208.50046,3.73
208.60046,2.63
208.70046,2.66
208.80046,2.48
208.90046,2.46
209.000468,2.61
209.100476,3.31
209.200476,2.9
209.300476,2.86
209.400476,3.16
209.500476,2.88
209.600476,2.47
209.700476,2.39
209.800476,2.24
209.900484,2.31
210.000492,3.11
210.100492,3.3
210.200496,2.51
210.3005,2.49
210.4005,2.64
210.5005,2.89
210.600508,2.75
210.700508,2.97
210.800508,3.07
210.900508,3.02
211.000508,2.96
211.100508,2.64
211.200508,2.31
211.300508,2.38
211.400516,2.34
211.500516,2.28
211.600516,2.24
211.700516,2.38
211.800516,2.41
211.900516,3.04
212.000516,4.14
212.100516,4.81
212.200516,4.81
212.300516,4.81
212.400516,3.86
212.500524,3.75
212.600532,3.7
212.700532,3.81
212.800532,4.14
212.900532,3.98
213.000532,3.33
213.100536,3.26
213.20054,2.84
213.30054,2.73
213.40054,2.75
213.500548,3.34
213.600548,2.92
213.700548,2.62
213.800548,2.62
213.900548,4.81
214.000548,4.81
214.100548,4.81
214.200548,4.81
214.300556,4.81
214.40056,4.81
214.500564,4.11
214.600564,3.51
214.700564,3.2
214.800564,3.63
214.900564,3.43
215.000564,3.49
215.100564,4.09
215.200572,3.96
215.300572,3.97
215.400572,3.57
215.500572,3.36
215.600572,3.91
215.700572,3.47
215.800572,3.43
215.900572,4.81
216.000572,4.81
216.100572,4.81
216.200572,4.81
216.30058,4.81
216.400588,4.81
216.500588,4.81
216.600592,4.82
216.700588,4.81
216.800588,4.81
216.900588,4.81
217.000588,4.81
217.100588,4.81
217.200596,4.82
217.300604,4.82
217.400604,4.82
217.500604,4.81
217.600604,4.81
217.700604,4.81
217.800604,4.82
217.900604,4.81
218.000604,4.81
218.100612,4.7
218.200612,3.07
218.300612,2.55
218.400612,2.52
218.500612,2.5
218.600612,2.63
218.700612,2.73
218.800612,3.32
218.900612,3.03
219.000612,2.55
219.100612,2.45
219.200612,3.18
219.300612,2.92
219.400612,2.9
219.50062,2.64
219.60062,2.39
219.70062,2.39
219.80062,2.33
219.90062,2.23
220.00062,2.1
220.100624,2.06
220.20062,2.5
220.30062,2.12
220.40062,1.79
220.50062,1.71
220.60062,1.56
220.70062,1.74
220.80062,1.79
220.90062,1.73
221.00062,1.88
221.10062,1.86
221.20062,1.81
221.300628,1.92
221.400636,2.17
221.500636,2.48
221.600636,2.18
221.700636,2.3
221.800644,2.71
221.900644,3.04
222.000644,4.38
222.100644,3.31
222.200644,2.54
222.300644,2.27
222.400644,2.21
222.500644,2.16
222.600644,1.92
222.700644,2.96
222.800644,2.73
222.900644,2.53
223.000644,1.98
223.100644,1.66
223.200644,1.54
223.300644,1.91
223.400644,4.14
223.500644,4.81
223.600652,4.82
223.700644,4.81
223.800644,4.82
223.900652,4.31
224.00066,3.17
224.10066,2.34
224.20066,2.33
224.30066,2.13
224.40066,3.29
224.500668,2.93
224.600676,2.32
224.700676,2.03
224.800676,1.82
224.900676,2.15
225.000676,2.66
225.100676,2.27
225.200676,2.11
225.300676,1.9
225.400684,1.87
225.500684,1.83
225.600684,1.81
225.700684,1.91
225.800684,1.8
225.900684,1.66
226.000684,1.56
226.100684,1.54
226.200692,1.57
226.300692,1.98
226.400692,1.67
226.500692,1.46
226.6007,1.6
226.7007,1.85
226.8007,2.08
226.9007,2.71
227.0007,3.0
227.1007,2.35
227.2007,1.97
227.3007,1.82
227.4007,1.8
227.5007,1.84
227.6007,1.84
227.700708,1.85
227.800716,2.04
227.900716,1.97
228.000716,1.84
228.100716,1.79
228.200716,1.8
228.300716,1.8
228.400716,1.79
228.500716,2.01
228.600724,2.14
228.700732,2.03
228.800732,4.53
228.900732,4.81
229.000732,4.81
229.100732,4.81
229.200732,4.81
229.300732,4.52
229.400732,2.68
229.50074,2.4
229.60074,4.7
229.70074,4.81
229.80074,4.82
229.90074,4.81
230.00074,4.82
230.10074,4.82
230.20074,4.82
230.30074,4.14
230.40074,3.2
230.50074,2.07
230.600748,2.78
230.700756,3.55
230.800756,3.27
230.900756,2.28
231.000756,1.85
231.100756,1.99
231.200756,2.56
231.300756,3.38
231.400756,2.92
231.500764,2.21
231.600772,1.65
231.700772,1.23
231.800772,0.93
231.900772,0.71
232.000772,0.54
232.10078,0.43
232.200788,0.34
232.300788,0.27
232.400788,0.22
232.500788,0.19
232.600788,0.16
232.700788,0.14
232.800788,0.12
232.900788,0.1
233.000788,0.09
233.100788,0.08
233.200788,0.07
233.300796,0.07
233.400796,0.07
233.500796,0.06
233.600796,0.06
233.700796,0.06
233.800796,0.07
233.900796,0.06
234.000796,4.12
234.100804,4.81
234.200812,4.81
234.300812,4.81
234.400812,4.82
234.500812,4.82
234.600812,4.81
234.700816,4.81
234.800812,4.46
234.900812,3.24
235.000812,2.33
235.100812,1.69
235.200812,1.24
235.30082,0.9
235.400828,0.66
235.500828,0.49
235.600828,0.36
235.700828,0.28
235.800828,0.22
235.900828,0.17
236.000828,0.14
236.100828,0.11
236.200836,0.1
236.300836,0.08
236.400836,0.07
236.500836,1.5
236.600836,4.81
236.700836,4.36
236.800836,3.54
236.900836,2.68
237.000836,1.94
237.100836,1.38
237.200836,0.98
237.300844,0.69
237.400852,0.49
237.500852,0.36
237.600852,0.26
237.700852,0.19
237.800852,0.15
237.900852,0.11
238.000852,0.09
238.100852,0.08
238.20086,0.07
238.300868,0.06
238.400868,0.06
238.500876,0.06
238.600868,0.06
238.700868,0.06
238.800868,0.07
238.900868,0.07
239.000868,0.07
239.100868,0.06
239.200868,0.07
239.300868,0.06
239.400876,0.06
239.500876,0.06
239.600876,0.06
239.700876,0.06
239.800876,0.06
239.900876,0.06
240.000876,0.07
240.100876,0.06
240.200884,0.06
240.300892,0.06
240.400892,0.06
240.500892,0.06
240.600892,0.06
240.700892,0.06
240.800892,0.06
240.900892,0.06
241.000892,0.06
241.1009,0.06
241.200908,0.06
241.300908,0.06
241.400908,0.06
241.500908,0.06
241.600908,0.06
241.700908,0.06
241.800908,0.06
241.900908,0.06
242.000916,0.06
242.100924,0.06
242.200924,0.06
242.300924,0.06
242.400924,0.07
242.500924,0.06
242.600924,1.23
242.700924,4.0
242.800924,4.81
242.900932,4.81
243.00094,4.81
243.10094,4.81
243.20094,4.81
243.30094,4.81
243.40094,4.81
243.50094,4.7
243.60094,3.92
243.70094,3.03
243.80094,2.31
243.90094,2.05
244.00094,2.3
244.100948,2.3
244.200948,2.04
244.300948,1.93
244.400948,1.97
244.500948,2.7
244.600948,2.61
244.700948,2.05
244.800948,2.11
244.900956,1.8
245.000964,1.72
245.100964,1.79
245.200964,1.98
245.300964,2.07
245.400964,2.09
245.500964,1.96
245.600964,1.79
245.700964,1.71
245.800972,1.68
245.900964,1.64
246.000964,1.63
246.100972,1.59
246.200972,1.62
246.300972,1.62
246.400972,1.65
246.500972,1.67
246.600972,1.71
246.700972,1.7
246.800972,1.71
246.900972,1.67
247.000972,1.72
247.100972,1.7
247.200972,1.73
247.300972,1.67
247.400972,1.68
247.500972,1.67
247.600972,1.97
247.700972,3.68
247.800972,4.64
247.900972,4.81
248.000972,4.56
248.100972,4.05
248.20098,3.57
248.30098,3.05
248.40098,2.74
248.50098,2.51
248.60098,2.19
248.70098,2.3
248.80098,2.0
248.90098,2.17
249.00098,2.39
249.10098,2.16
249.20098,1.97
249.300988,1.81
249.400988,1.84
249.500988,1.74
249.600988,1.84
249.700988,2.32
249.800988,2.99
249.900988,3.59
250.000988,3.56
250.100988,3.24
250.200988,2.92
250.300988,2.64
250.400988,2.45
250.500988,2.14
250.600988,2.0
250.700996,1.93
250.800996,1.82
250.900996,1.86
251.000996,1.85
251.100996,1.86
251.200996,1.82
251.300996,1.86
251.400996,1.84
251.500996,1.84
251.600996,1.76
251.700996,1.89
251.800996,1.73
251.900996,1.64
252.000996,1.68
252.100996,1.68
252.201,1.67
252.301004,1.69
252.401004,1.66
252.501008,1.7
252.601012,1.76
252.701012,1.78
252.801012,1.78
252.901012,1.77
253.001012,1.78
253.101012,1.81
253.201012,2.08
253.301012,2.43
253.401012,2.85
253.501012,2.98
253.601012,2.61
253.70102,2.24
253.801028,2.05
253.901028,2.05
254.001028,1.98
254.101028,2.0
254.201028,2.02
254.301028,1.94
254.401028,1.96
254.501028,1.9
254.601028,2.15
254.701028,2.19
254.801028,2.2
254.901036,2.53
255.001036,4.2
255.101036,4.81
255.201036,4.21
255.301036,3.15
255.401036,2.5
255.501036,2.39
255.601036,2.53
255.701044,2.83
255.801052,2.61
255.901052,2.57
256.001052,2.57
256.101052,2.52
256.201052,2.45
256.301052,2.42
256.401052,2.37
256.501052,2.35
256.60106,2.32
256.701068,2.29
256.801068,2.29
256.901068,2.3
257.001068,2.26
257.101068,2.28
257.201076,2.34
257.301084,2.39
257.401084,2.35
257.501084,2.3
257.601084,2.2
257.701084,2.27
257.801084,2.3
257.901084,2.17
258.001084,2.12
258.101084,2.13
258.201084,2.14
258.301084,2.14
258.401092,2.15
258.501092,2.32
258.601092,2.28
258.701092,2.18
258.801092,2.16
258.901092,2.15
259.001092,2.15
259.101092,2.07
259.201092,2.21
259.301092,2.21
259.401092,2.2
259.5011,2.13
259.601108,2.24
259.701108,2.29
259.801108,2.39
259.901108,2.43
260.001108,2.44
260.101108,2.44
260.201108,2.63
260.301108,2.89
260.401116,2.94
260.501124,2.64
260.601124,2.82
260.701124,2.49
260.801124,2.36
260.901124,2.24
261.001132,2.25
261.10114,2.25
261.20114,2.28
261.30114,2.27
261.40114,2.35
261.50114,2.32
261.60114,2.61
261.70114,2.62
261.80114,2.51
261.90114,2.45
262.00114,2.5
262.10114,2.5
262.20114,2.5
262.30114,2.52
262.40114,2.56
262.501148,2.52
262.601148,2.64
262.701156,2.61
262.801164,2.61
262.901164,2.61
263.001164,2.65
263.101164,2.65
263.201164,2.66
263.301164,2.64
263.401164,2.66
263.501164,2.48
263.601172,2.73
263.70118,4.29
263.80118,3.83
263.90118,3.05
264.00118,2.57
264.10118,2.26
264.20118,2.23
264.30118,2.17
264.40118,2.16
264.501188,2.07
264.601196,2.13
264.701196,2.17
264.801196,2.18
264.901196,2.16
265.001196,2.19
265.101196,2.19
265.201196,2.23
265.301196,2.25
265.401196,2.21
265.501196,2.3
265.601196,2.26
265.701204,2.31
265.801204,3.85
265.901204,4.81
266.001204,4.81
266.101204,4.81
266.201204,3.37
266.301204,2.59
266.401204,2.62
266.501212,2.54
266.60122,2.45
266.70122,2.32
266.80122,2.22
266.90122,2.08
267.00122,1.97
267.10122,1.93
267.20122,1.92
267.30122,1.91
267.401228,1.86
267.50122,1.93
267.60122,1.92
267.701228,1.86
267.801236,1.97
267.901236,2.6
268.001236,3.0
268.101236,2.74
268.201236,2.42
268.301236,2.26
268.401236,2.18
268.501236,2.21
268.601236,2.18
268.701236,2.17
268.801236,2.13
268.901244,2.12
269.001244,2.03
269.101244,2.03
269.201244,2.0
269.301244,1.94
269.401244,1.86
269.501244,1.81
269.601244,1.8
269.701252,1.93
269.80126,1.92
269.90126,2.25
270.00126,3.45
270.10126,3.3
270.20126,2.81
270.30126,2.42
270.40126,2.18
270.50126,2.13
270.601268,2.05
270.701276,2.06
270.801276,2.12
270.901276,2.29
271.001276,2.66
271.101276,2.72
271.201276,2.78
271.301276,2.72
271.401276,2.54
271.501284,2.4
271.601292,2.34
271.701292,2.3
271.801292,2.22
271.901292,2.14
272.001292,2.07
272.101296,2.61
272.2013,2.86
272.3013,2.67
272.4013,2.29
272.501308,2.17
272.601308,2.22
272.701308,2.07
272.801308,2.11
272.901308,2.11
273.001316,2.14
273.101316,2.09
273.201316,2.06
273.301316,2.05
273.401316,2.05
273.501316,2.07
273.601316,2.1
273.701316,2.06
273.801316,2.09
273.901316,2.05
274.001316,2.05
274.101316,2.05
274.201316,2.3
274.301316,2.26
274.401316,2.3
274.501316,2.21
274.601316,2.53
274.701328,3.16
274.801332,3.77
274.901332,4.82
275.001332,4.81
275.101332,4.81
275.201332,4.82
275.30134,4.81
275.401348,4.81
275.501348,4.82
275.601348,4.81
275.701348,4.81
275.801348,4.82
275.901348,4.82
276.001348,4.82
276.101348,4.81
276.201356,4.81
276.301356,4.64
276.401356,4.1
276.501356,3.3
276.601356,2.46
276.701356,2.16
276.801356,2.17
276.901356,2.36
277.001356,2.51
277.101356,2.62
277.201356,2.64
277.301356,2.53
277.401356,2.34
277.501356,2.18
277.601356,2.08
277.701356,2.03
277.801356,1.92
277.901364,1.96
278.001364,1.91
278.101364,1.92
278.201364,1.82
278.301364,1.78
278.401364,1.72
278.501364,1.7
278.601364,1.74
278.701364,1.79
278.801364,1.77
278.901364,1.71
279.001364,1.7
279.101364,2.03
279.201364,2.36
279.301364,2.06
279.401364,1.85
279.501364,1.72
279.601364,1.66
279.701364,1.68
279.801364,1.85
279.901364,1.98
280.001364,2.03
280.101364,2.07
280.201364,2.02
280.301372,2.04
280.401372,2.03
280.501372,2.04
280.601372,2.07
280.701372,2.21
280.801372,2.06
280.901372,2.04
281.001372,2.04
281.10138,2.0
281.201388,1.98
281.301388,1.98
281.401388,2.02
281.501388,2.19
281.601388,2.4
281.701396,2.26
281.801396,2.07
281.901396,2.14
282.001396,2.22
282.101404,2.18
282.201404,2.12
282.301404,2.14
282.401404,2.13
282.501404,2.19
282.601404,2.19
282.701404,2.05
282.801404,1.99
282.901412,2.0
283.00142,2.39
283.10142,2.97
283.20142,2.63
283.30142,2.26
283.40142,2.05
283.50142,2.02
283.60142,2.2
283.70142,2.1
283.801428,1.79
283.901428,1.57
284.001428,1.29
284.101428,1.16
284.201428,1.41
284.301428,1.38
284.401428,1.33
284.501428,1.7
284.601428,1.77
284.701428,1.68
284.801428,1.92
284.901436,2.29
285.001444,2.76
285.101444,2.99
285.201444,2.52
285.301444,3.29
285.401444,4.81
285.501452,4.81
285.601444,4.81
285.701444,4.81
285.801452,3.4
285.90146,4.77
286.00146,4.81
286.10146,4.81
286.20146,4.81
286.30146,2.86
286.40146,1.86
286.50146,1.63
286.60146,3.26
286.70146,4.05
286.80146,3.46
286.90146,2.22
287.001468,1.3
287.101468,0.96
287.201468,0.86
287.301468,0.91
287.401468,0.97
287.501468,1.32
287.601468,1.92
287.701468,1.48
287.801468,1.07
287.901468,1.14
288.001468,1.08
288.101476,0.97
288.201476,0.92
288.301476,0.97
288.401476,1.03
288.501476,1.12
288.601476,1.16
288.701476,1.15
288.801476,1.12
288.901476,1.1
289.001484,1.09
289.101476,1.07
289.201476,1.06
289.301476,1.07
289.401476,1.07
289.501476,1.05
289.601476,1.05
289.701476,1.06
289.801476,1.07
289.901476,1.08
290.001476,1.07
290.101476,1.1
290.201484,1.11
290.301484,1.04
290.401484,1.02
290.501484,0.98
290.601484,1.03
290.701484,1.0
290.801484,1.01
290.901484,1.02
291.001484,1.04
291.101484,0.99
291.201484,1.22
291.301492,1.57
291.4015,2.49
291.5015,2.2
291.6015,1.65
291.7015,1.25
291.8015,1.15
291.9015,1.09
292.0015,1.07
292.1015,1.02
292.201508,1.01
292.301516,0.99
292.401516,1.02
292.50152,1.01
292.601516,1.11
292.701516,1.11
292.801516,1.01
292.901516,1.37
293.001516,1.67
293.101516,2.21
293.201516,2.06
293.301516,1.52
293.401524,1.16
293.501524,1.31
293.601524,1.29
293.701524,1.23
293.801524,1.2
293.901524,1.21
294.001524,1.26
294.101524,1.32
294.201532,1.35
294.301532,1.37
294.401532,1.35
294.501532,2.68
294.601532,4.81
294.701532,4.81
294.801532,4.64
294.901532,2.5
295.001536,1.95
295.10154,2.44
295.20154,2.57
295.30154,2.48
295.401548,2.28
295.501548,2.12
295.601548,1.8
295.701548,1.5
295.801548,1.28
295.901548,1.17
296.001552,1.12
296.101548,1.09
296.201548,1.03
296.301548,1.03
296.401548,1.02
296.501548,2.07
296.601548,3.26
296.701548,3.49
296.801548,2.82
296.901548,1.52
297.001548,1.31
297.101548,1.36
297.201548,1.32
297.301548,1.23
297.401548,1.1
297.501548,1.06
297.601548,0.99
297.701548,0.96
297.801556,1.0
297.901556,1.0
298.001556,1.18
298.101556,1.26
298.201556,3.97
298.301556,4.81
298.401556,3.78
298.501556,1.91
298.601564,1.46
298.701572,1.76
298.801572,1.75
298.901572,1.35
299.001572,1.19
299.101572,1.15
299.201572,1.14
299.301572,1.28
299.401572,1.13
299.50158,1.03
299.601572,1.02
299.701572,1.0
299.80158,1.03
299.90158,1.1
300.00158,2.51
300.10158,4.81
300.20158,4.81
300.30158,3.04
300.40158,1.58
300.50158,1.35
300.60158,1.52
300.70158,1.32
300.80158,1.1
300.90158,1.07
301.00158,1.05
301.10158,1.07
301.20158,1.04
301.30158,1.04
301.40158,1.03
301.50158,1.18
301.60158,1.23
301.70158,1.39
301.80158,1.48
301.90158,1.72
302.00158,4.2
302.10158,4.81
302.201588,3.26
302.301588,1.69
302.401588,1.72
302.501588,2.14
302.601588,2.46
302.701588,2.31
302.801588,1.87
302.901588,1.71
303.001588,1.57
303.101588,1.46
303.201588,1.36
303.301596,1.26
303.401596,1.22
303.501596,1.49
303.601596,1.78
303.701596,3.28
303.801596,4.81
303.901596,4.81
304.001596,3.26
304.101596,1.8
304.201596,1.91
304.301596,2.53
304.401596,2.6
304.501596,2.46
304.601596,1.91
304.701596,1.25
304.801596,1.04
304.901596,0.99
305.001596,1.29
305.101596,1.94
305.201596,3.07
305.301596,3.57
305.401596,2.0
305.501596,1.67
305.601596,2.17
305.701604,1.7
305.801604,1.5
305.901604,1.64
306.001604,1.51
306.101604,1.18
306.201612,2.17
306.301604,2.74
306.401604,2.1
306.501612,1.72
306.601612,1.35
306.701612,1.04
306.801612,0.95
306.901612,0.93
307.001612,0.91
307.101612,0.9
307.201612,0.91
307.301612,0.95
307.401612,1.0
307.501612,1.19
307.601612,2.04
307.701612,2.64
307.801612,3.24
307.90162,4.81
308.00162,4.82
308.10162,4.81
308.20162,4.81
308.30162,4.81
308.40162,4.81
308.50162,4.81
308.60162,4.81
308.70162,4.82
308.80162,4.82
308.90162,4.82
309.00162,4.81
309.10162,4.65
309.20162,4.17
309.30162,3.79
309.40162,3.44
309.50162,3.07
309.60162,2.83
309.70162,2.55
309.80162,2.27
309.90162,2.02
310.00162,1.68
310.10162,1.35
310.20162,3.14
310.301628,4.81
310.401628,3.6
310.501628,1.6
310.601628,1.58
310.701628,2.85
310.801628,3.36
310.901628,2.85
311.001628,2.23
311.101628,1.73
311.201628,1.34
311.301628,1.05
311.401636,0.83
311.501636,2.13
311.601636,1.6
311.701636,1.38
311.801636,2.25
311.901636,4.81
312.001636,4.81
312.101636,4.81
312.201636,4.81
312.301636,4.81
312.401636,4.81
312.501636,4.81
312.601636,3.11
312.701636,1.95
312.801636,1.55
312.901644,1.56
313.001636,1.8
313.101636,1.62
313.201636,1.53
313.301636,1.55
313.401636,1.65
313.501636,1.79
313.601636,2.67
313.701636,4.81
313.801636,4.81
313.901636,4.81
314.001636,4.81
314.101636,4.81
314.201636,4.81
314.301636,4.81
314.401636,4.81
314.501636,4.81
314.601636,4.81
314.701636,4.81
314.801636,4.81
314.901636,4.81
315.001636,4.81
315.101636,4.81
315.201636,4.81
315.301636,4.18
315.401636,3.21
315.501636,2.89
315.601636,2.81
315.701636,3.45
315.801636,3.88
315.901636,3.44
316.001636,2.79
316.101648,2.13
316.201652,1.57
316.301652,2.36
316.401652,4.04
316.501652,4.81
316.601652,4.81
316.701652,4.81
316.801652,4.81
316.901652,4.81
317.001652,4.81
317.101652,4.82
317.201652,4.81
317.30166,4.81
317.40166,4.81
317.50166,4.81
317.60166,4.81
317.70166,4.82
317.80166,4.81
317.90166,4.82
318.00166,4.81
318.10166,4.81
318.20166,4.81
318.30166,4.81
318.401668,4.08
318.501668,3.47
318.601668,2.99
318.701668,2.62
318.801668,2.27
318.901668,2.04
319.001668,1.86
319.101668,1.6
319.201668,1.46
319.301668,1.44
319.401668,1.41
319.501668,1.4
319.601676,1.38
319.701668,1.42
319.801668,1.38
319.901668,1.48
320.001668,1.64
320.101668,1.86
320.201668,2.01
320.301668,2.21
320.401668,2.34
320.501676,2.22
320.601684,2.02
320.701684,1.85
320.801684,1.82
320.901684,1.8
321.001684,1.68
321.101684,1.71
321.201684,1.67
321.301684,1.59
321.401692,1.76
321.501692,1.47
321.601692,1.3
321.701692,1.25
321.801692,1.21
321.901692,1.18
322.001692,1.22
322.101692,1.23
322.201692,1.22
322.301692,1.24
322.401692,1.2
322.5017,1.22
322.601708,1.31
322.701708,1.22
322.801708,1.18
322.901708,1.17
323.001708,1.24
323.101712,1.65
323.201708,2.12
323.301708,4.81
323.401708,4.81
323.501708,4.81
323.601708,4.81
323.701716,4.82
323.801716,4.81
323.901716,4.81
324.001716,4.81
324.101716,4.81
324.201716,4.81
324.301716,4.81
324.401716,4.81
324.501716,4.81
324.601716,4.28
324.701716,3.26
324.801716,2.68
324.901716,2.19
325.001716,2.0
325.101716,1.92
325.201716,1.88
325.301716,1.79
325.401716,1.7
325.501716,1.74
325.601716,1.81
325.701716,1.44
325.801716,1.4
325.901716,1.32
326.001716,1.3
326.101724,1.29
326.201724,1.23
326.301724,1.18
326.401724,1.38
326.501724,4.81
326.601724,4.81
326.701724,4.81
326.801724,4.81
326.901724,4.81
327.001724,4.81
327.101724,4.81
327.201724,4.81
327.301724,4.81
327.401724,4.81
327.501724,4.82
327.601724,4.81
327.701724,4.81
327.801724,4.82
327.901724,4.81
328.001724,4.82
328.101724,4.81
328.201724,4.81
328.301724,4.82
328.401724,4.81
328.501724,4.82
328.601724,4.81
328.701724,4.81
328.801724,4.81
328.901724,4.5
329.001724,4.16
329.101724,3.83
329.201724,3.72
329.301724,3.54
329.401724,3.42
329.501732,3.3
329.60174,3.09
329.70174,3.05
329.801744,2.84
329.90174,2.48
330.00174,2.27
330.101748,2.02
330.201748,1.9
330.301748,1.73
330.401748,1.59
330.501756,1.43
330.601756,1.36
330.701756,1.3
330.801756,1.31
330.901756,1.27
331.001756,1.25
331.101756,1.18
331.201756,4.81
331.301764,4.81
331.401764,4.81
331.501764,4.81
331.601764,4.81
331.701764,4.82
331.801764,4.81
331.901764,4.81
332.001764,4.82
332.101772,4.81
332.20178,4.81
332.30178,4.82
332.40178,4.82
332.50178,4.81
332.60178,4.81
332.70178,4.81
332.80178,4.82
332.90178,4.25
333.00178,3.74
333.10178,3.25
333.20178,2.94
333.301788,2.63
333.401796,2.31
333.501796,2.13
333.601804,2.12
333.701796,1.78
333.801796,1.58
333.901796,1.51
334.001796,1.47
334.101796,1.48
334.201804,1.37
334.301812,1.46
334.401812,1.6
334.501812,1.3
334.601812,1.17
334.701812,1.23
334.801812,4.81
334.901812,4.81
335.001812,4.81
335.10182,4.81
335.20182,4.82
335.30182,4.82
335.40182,4.82
335.50182,4.82
335.60182,4.81
335.70182,4.81
335.80182,4.81
335.90182,4.82
336.00182,4.81
336.10182,4.81
336.201828,4.74
336.301836,4.14
336.401836,3.33
336.501836,2.49
336.601836,2.29
336.701836,2.09
336.801844,1.99
336.901852,1.81
337.001852,1.63
337.101852,1.52
337.201852,1.53
337.301852,1.44
337.401852,1.39
337.501852,1.24
337.601852,1.3
337.70186,4.81
337.801868,4.81
337.901868,4.81
338.001868,4.81
338.101868,4.81
338.201868,4.81
338.301872,4.81
338.401876,4.81
338.501876,4.82
338.601876,4.81
338.701884,4.81
338.801884,4.81
338.901884,4.81
339.001884,4.82
339.101884,4.82
339.201884,3.87
339.301884,3.26
339.401884,3.18
339.501884,3.08
339.601884,3.03
339.701884,2.67
339.801892,2.47
339.901892,2.28
340.001896,2.18
340.101908,2.06
340.201908,2.11
340.301908,2.01
340.401908,1.87
340.501908,1.83
340.601908,1.74
340.701908,1.64
340.801908,1.69
340.901916,1.56
341.001916,1.53
341.101916,1.52
341.201916,1.55
341.301916,1.53
341.401916,1.59
341.501916,2.1
341.601916,4.81
341.701916,4.81
341.801916,4.81
341.901924,4.81
342.001924,4.82
342.101924,4.82
342.201924,4.82
342.301924,4.82
342.401924,4.81
342.501924,4.81
342.601924,4.82
342.701932,4.81
342.801932,4.81
342.901932,4.81
343.001932,4.54
343.101932,4.46
343.201932,3.9
343.301932,3.89
343.401932,3.88
343.501932,4.15
343.601932,3.59
343.701932,3.65
343.80194,3.4
343.901948,3.45
344.001948,3.2
344.101948,3.16
344.201948,3.03
344.301948,2.97
344.401948,2.78
344.501948,2.84
344.601948,3.5
344.701948,2.61
344.801948,2.1
344.901948,2.12
345.001956,2.05
345.101956,2.17
345.201956,2.09
345.301956,2.34
345.401956,2.24
345.501956,2.35
345.601956,2.22
345.701956,2.3
345.801956,2.04
345.901956,2.05
346.001956,2.12
346.101964,2.03
346.201964,2.21
346.301964,2.38
346.401964,2.52
346.501964,4.13
346.601964,2.35
346.701964,2.1
346.801964,4.17
346.901964,4.27
347.001964,4.81
347.101964,4.81
347.201964,4.81
347.301964,4.81
347.401964,4.81
347.501964,4.81
347.601964,4.81
347.701964,4.81
347.801964,4.81
347.901968,4.81
348.001964,4.81
348.101964,4.82
348.201964,4.81
348.301964,4.81
348.401964,4.81
348.501972,4.81
348.601972,4.81
348.701972,4.81
348.801972,4.82
348.901972,4.81
349.001972,4.81
349.101972,4.81
349.201972,4.81
349.301972,4.81
349.401972,4.81
349.501972,4.59
349.60198,3.47
349.70198,2.64
349.80198,2.03
349.90198,1.57
350.00198,1.22
350.10198,0.96
350.20198,0.86
350.30198,1.55
350.401984,2.1
350.501988,2.33
350.601988,2.67
350.701988,2.93
350.801988,3.11
350.901988,3.15
351.001988,3.12
351.101988,2.89
351.201988,2.69
351.301988,2.45
351.401996,2.18
351.501988,2.14
351.601988,2.14
351.701988,2.13
351.801996,2.13
351.901996,2.15
352.001996,2.25
352.101996,2.29
352.201996,2.32
352.301996,2.43
352.401996,2.43
352.501996,4.69
352.602004,3.51
352.702012,2.01
352.802012,1.63
352.902012,3.53
353.002012,3.86
353.102012,3.58
353.202012,3.5
353.302012,3.3
353.402012,3.02
353.502012,2.65
353.602012,2.47
353.702012,2.28
353.80202,2.05
353.90202,1.81
354.00202,1.68
354.10202,1.53
354.20202,1.41
354.30202,1.34
354.40202,1.3
354.50202,1.37
354.60202,1.31
354.70202,2.17
354.80202,2.32
354.902032,1.73
355.002028,3.0
355.102028,4.81
355.202028,4.81
355.302028,4.81
355.402028,4.81
355.502028,4.81
355.602028,4.81
355.702028,3.67
355.802028,2.65
355.902028,1.96
356.002028,1.68
356.102028,1.75
356.202028,1.91
356.302028,1.85
356.402028,1.54
356.502028,1.54
356.602028,1.6
356.702028,1.67
356.802028,1.72
356.902028,1.73
357.002028,1.76
357.102028,2.26
357.202028,3.88
357.302036,4.81
357.402036,4.81
357.502036,3.82
357.602036,3.22
357.702036,3.14
357.802036,3.64
357.902036,4.81
358.002036,4.81
358.102044,4.63
358.202052,3.26
358.302052,2.8
358.40206,2.61
358.502052,2.49
358.602052,2.43
358.702052,2.11
358.802052,2.04
358.902052,1.97
359.00206,2.0
359.102068,2.03
359.202068,2.04
359.302068,1.98
359.402068,1.99
359.502068,1.89
359.602068,1.92
359.702068,1.8
359.802068,1.71
359.902068,1.75
360.002068,1.96
360.102068,2.33
360.202076,2.61
360.302076,2.71
360.402076,2.64
360.502076,2.67
360.602076,3.22
360.702084,2.77
360.802092,2.12
360.902092,3.51
361.002092,3.76
361.102092,3.16
361.202092,3.27
361.302092,3.73
361.402092,4.52
361.502092,4.81
361.602092,4.81
361.702092,4.81
361.802092,4.81
361.9021,4.81
362.002108,4.81
362.102108,4.81
362.202108,4.81
362.302108,4.81
362.402108,3.88
362.502108,2.36
362.602108,2.63
362.702108,3.08
362.802116,2.86
362.902124,2.16
363.002124,1.66
363.102124,1.73
363.202124,2.03
363.302124,1.88
363.402124,1.71
363.502124,1.69
363.602124,1.53
363.702132,1.49
363.802132,1.46
363.902132,1.41
364.002132,1.49
364.102132,1.44
364.202132,1.47
364.302132,1.45
364.402132,1.59
364.502132,2.11
364.602132,2.8
364.702132,4.0
364.802132,4.82
364.902132,4.82
365.002132,4.18
365.10214,3.01
365.20214,2.05
365.30214,1.63
365.40214,1.58
365.50214,2.64
365.60214,3.88
365.70214,4.43
365.80214,4.44
365.90214,3.31
366.00214,2.26
366.10214,1.82
366.20214,1.68
366.30214,1.59
366.40214,1.51
366.50214,1.5
366.60214,1.41
366.70214,1.36
366.80214,1.41
366.90214,1.42
367.00214,1.62
367.10214,1.57
367.20214,1.52
367.30214,1.5
367.40214,1.93
367.502148,1.74
367.602148,1.55
367.702148,1.58
367.802148,1.63
367.902148,1.72
368.002148,1.73
368.102148,1.68
368.202148,1.52
368.302148,1.43
368.402148,1.44
368.502148,1.6
368.602156,1.81
368.702156,1.87
368.802156,3.71
368.90216,4.81
369.002156,4.81
369.102156,4.81
369.202156,4.81
369.302156,4.35
369.402156,3.69
369.502156,3.45
369.602156,3.15
369.702156,3.04
369.802156,3.11
369.902156,2.94
370.002156,2.55
370.102156,2.15
370.202156,1.95
370.302156,1.81
370.402156,1.65
370.502156,1.55
370.602156,1.54
370.702156,1.5
370.802156,1.45
370.902156,1.41
371.002164,1.4
371.102164,1.34
371.202164,1.39
371.302164,1.58
371.402164,2.17
371.502164,3.63
371.602164,3.83
371.702164,3.19
371.802164,2.25
371.902164,1.6
372.002164,1.44
372.102172,1.38
372.202172,1.38
372.302172,1.35
372.402172,1.39
372.502172,1.47
372.602172,1.44
372.702172,1.41
372.802172,1.43
372.902172,1.44
373.002172,1.71
373.102172,1.92
373.202172,2.82
373.302172,3.22
373.402172,2.89
373.502172,1.9
373.602172,1.51
373.702172,1.43
373.802172,1.54
373.90218,1.61
374.00218,1.72
374.10218,1.72
374.20218,1.7
374.30218,1.68
374.40218,1.85
374.50218,1.72
374.60218,1.56
374.70218,1.87
374.80218,2.18
374.90218,3.43
375.00218,4.03
375.10218,2.95
375.20218,1.85
375.302188,1.48
375.402196,1.44
375.502196,1.51
375.602196,1.57
375.702196,1.59
375.802196,1.54
375.902196,1.56
376.002196,1.55
376.102196,1.58
376.202196,1.56
376.302196,1.71
376.402196,1.69
376.502204,1.86
376.602204,4.67
376.702204,4.81
376.802204,4.81
376.902204,4.81
377.002204,2.84
377.102204,2.56
377.202204,3.45
377.302204,4.29
377.402204,4.57
377.502204,4.73
377.602212,4.62
377.702212,4.49
377.802216,4.43
377.90222,4.5
378.00222,4.54
378.10222,4.64
378.20222,4.78
378.30222,4.81
378.40222,4.82
378.502228,4.81
378.602228,4.81
378.702228,4.81
378.802228,4.82
378.902228,4.82
379.002228,4.82
379.102228,4.81
379.202228,4.82
379.302228,4.81
379.402228,4.82
379.502228,4.81
379.602228,4.81
379.702228,4.82
379.802228,4.82
379.902228,4.82
380.002228,4.81
380.102228,4.82
380.202228,2.72
380.302228,3.36
380.402228,4.81
380.502228,4.81
380.602228,4.81
380.702228,4.81
380.802228,4.81
380.902236,4.81
381.002236,4.81
381.102236,4.81
381.202236,4.81
381.302236,3.97
381.402236,2.29
381.502236,1.8
381.602236,3.6
381.702236,4.81
381.802236,4.81
381.902236,4.81
382.002236,3.79
382.102236,3.35
382.202236,2.78
382.302236,1.94
382.402236,1.81
382.502236,1.97
382.602236,2.09
382.702236,4.39
382.802236,4.82
382.902236,4.82
383.002236,4.82
383.102236,4.81
383.202236,4.81
383.302244,4.81
383.402244,3.97
383.502244,3.22
383.602244,2.6
383.702244,2.09
383.802244,1.74
383.902244,1.53
384.002244,1.41
384.102252,1.38
384.202252,1.35
384.302252,1.35
384.402252,1.35
384.502252,1.31
384.602252,1.33
384.702252,1.36
384.802252,1.34
384.902252,1.35
385.002252,1.36
385.102252,1.33
385.20226,1.34
385.302268,1.34
385.402268,1.35
385.502268,1.35
385.602268,1.36
385.702268,1.37
385.802268,1.55
385.902268,1.87
386.002268,2.51
386.102268,4.81
386.202268,4.81
386.302268,4.81
386.402268,4.81
386.502268,4.81
386.602268,3.73
386.702268,2.82
386.802268,2.18
386.902268,1.82
387.002268,1.59
387.102268,1.48
387.202268,1.43
387.302268,1.42
387.402268,1.41
387.502268,1.42
387.602268,1.4
387.702268,1.67
387.802268,3.4
387.902268,4.81
388.002268,4.81
388.102268,4.81
388.202268,4.81
388.302268,4.81
388.402268,4.18
388.502268,3.18
388.602268,2.48
388.702268,1.99
388.802268,1.69
388.902268,1.53
389.002268,1.47
389.102268,1.45
389.202268,1.42
389.302268,1.43
389.402268,1.38
389.502268,1.46
389.602268,1.74
389.702268,1.99
389.802268,2.59
389.902268,2.76
390.002268,2.48
390.102268,2.58
390.202268,2.66
390.302276,2.6
390.402276,2.61
390.502276,2.4
390.602276,2.17
390.702276,2.0
390.802276,1.91
390.902276,1.68
391.002276,1.53
391.102276,1.5
391.202276,1.47
391.302276,1.42
391.402284,1.65
391.502284,1.96
391.602284,1.76
391.702284,1.87
391.802284,1.88
391.902284,1.96
392.002284,1.89
392.102284,1.79
392.202284,1.58
392.302284,1.48
392.402284,1.66
392.502292,1.85
392.602292,1.84
392.702292,1.68
392.802292,1.57
392.902292,1.59
393.002292,1.51
393.102292,1.57
393.202292,1.83
393.302292,2.06
393.402292,2.21
393.502292,1.87
393.602292,1.99
393.702292,2.11
393.802292,2.24
393.902292,2.01
394.002292,1.78
394.102292,1.59
394.202292,1.66
394.302292,1.92
394.402292,1.95
394.502292,1.87
394.602292,1.83
394.702292,1.74
394.802292,1.74
394.9023,2.0
395.0023,2.31
395.1023,1.91
395.2023,1.64
395.3023,2.01
395.4023,2.57
395.5023,2.83
395.6023,2.3
395.702308,1.89
395.802316,1.73
395.902316,1.6
396.00232,1.5
396.102316,1.48
396.202316,1.46
396.302316,1.46
396.402316,1.49
396.502316,1.68
396.602316,1.96
396.702316,2.24
396.802316,2.79
396.902324,3.48
397.002324,4.08
397.102324,4.44
397.202324,3.8
397.302324,2.73
397.402324,1.98
397.502324,1.99
397.602324,2.16
397.702332,2.27
397.802332,2.03
397.902332,1.81
398.002332,1.69
398.102332,1.68
398.202332,1.61
398.302332,1.64
398.402332,1.67
398.502332,1.66
398.602332,1.96
398.702332,1.7
398.802332,1.89
398.902332,2.26
399.002332,2.12
399.102332,1.7
399.202332,1.52
399.302332,1.57
399.402332,1.68
399.502332,2.08
399.602332,2.24
399.702332,1.92
399.802332,1.67
399.902332,1.54
400.002332,1.49
400.10234,1.48
400.202348,1.51
400.302348,1.6
400.402348,1.79
400.502348,1.94
400.602348,2.26
400.702348,2.44
400.802348,2.18
400.902348,1.87
401.002348,1.58
401.102348,1.56
401.202348,1.54
401.302356,1.58
401.402356,1.65
401.502356,1.88
401.602356,1.74
401.702356,1.56
401.802356,1.55
401.902356,1.5
402.002356,1.51
402.102364,1.47
402.202372,1.44
402.302372,1.46
402.402372,1.69
402.502372,1.94
402.602372,2.19
402.702372,2.26
402.802372,2.05
402.902372,1.65
403.00238,1.72
403.102372,1.86
403.202372,1.89
403.30238,1.91
403.40238,1.89
403.50238,1.72
403.60238,1.6
403.70238,1.63
403.80238,1.58
403.90238,1.61
404.00238,1.61
404.10238,1.64
404.20238,1.73
404.30238,1.91
404.40238,2.09
404.50238,2.54
404.60238,3.37
404.70238,2.53
404.80238,3.3
404.90238,4.82
405.00238,4.82
405.10238,4.82
405.20238,4.82
405.30238,4.82
405.40238,4.82
405.50238,4.82
405.60238,4.81
405.702388,4.82
405.802388,4.82
405.902388,4.81
406.002388,4.82
406.102388,4.81
406.202388,4.82
406.302388,4.82
406.402388,4.81
406.502396,4.82
406.602396,4.82
406.702396,4.82
406.802396,4.82
406.902396,4.82
407.002396,4.82
407.102396,4.47
407.202396,3.04
407.302396,2.27
407.402396,4.81
407.502396,4.81
407.602396,4.81
407.702396,4.81
407.802396,4.81
407.902396,4.81
408.002396,4.81
408.102396,4.81
408.202396,4.81
408.302396,4.81
408.402396,3.38
408.502396,2.73
408.6024,2.87
408.702404,2.95
408.802404,2.83
408.902404,2.68
409.002404,2.21
409.102404,1.93
409.202404,1.75
409.302404,1.58
409.402404,1.43
409.502404,1.34
409.602404,1.29
409.702416,1.25
409.80242,1.2
409.90242,1.18
410.00242,1.22
410.10242,1.23
410.20242,1.68
410.30242,1.62
410.40242,1.77
410.50242,2.74
410.602428,4.07
410.702436,3.44
410.802436,3.48
410.902436,3.85
411.002436,4.75
411.102436,4.82
411.202436,4.82
411.302436,4.81
411.40244,4.81
411.502444,4.37
411.602444,4.02
411.702444,3.72
411.802444,3.26
411.902444,2.63
412.002444,2.4
412.102444,2.26
412.202444,2.13
412.302444,2.22
412.402444,2.48
412.502444,2.45
412.602444,2.18
412.702444,2.08
412.802444,2.12
412.902452,2.18
413.00246,2.19
413.10246,2.19
413.20246,2.21
413.30246,2.17
413.40246,2.09
413.50246,1.96
413.60246,1.85
413.70246,1.72
413.802468,1.67
413.902476,1.59
414.002476,1.52
414.102476,1.48
414.202476,1.49
414.302476,1.49
414.402476,1.5
414.502476,1.47
414.602476,1.67
414.702484,1.75
414.802492,1.78
414.902492,1.74
415.002492,1.36
415.102492,1.27
415.202492,1.27
415.302492,1.34
415.402492,1.32
415.502492,1.32
415.6025,1.52
415.7025,1.65
415.8025,1.41
415.9025,1.25
416.0025,1.17
416.1025,1.15
416.2025,1.13
416.3025,1.12
416.4025,1.11
416.5025,1.16
416.6025,1.12
416.7025,1.13
416.8025,1.11
416.9025,1.11
417.002512,1.09
417.102508,1.11
417.202508,1.11
417.302508,1.13
417.402508,1.28
417.502508,1.31
417.602508,1.15
417.702508,1.11
417.802508,1.12
417.902508,1.11
418.002508,1.13
418.102508,1.44
418.202508,1.64
418.302508,1.42
418.402508,1.39
418.502508,1.63
418.602508,2.32
418.702508,2.88
418.802508,3.11
418.902508,3.33
419.002508,3.38
419.102516,3.21
419.202516,2.96
419.302516,2.59
419.402516,2.46
419.502516,2.22
419.602516,1.86
419.702516,1.51
419.802516,1.41
419.902524,1.32
420.002532,1.28
420.102532,1.21
420.20254,1.22
420.30254,1.4
420.40254,1.84
420.502544,2.18
420.602548,2.26
420.702548,1.69
420.802548,1.3
420.902548,1.4
421.002548,1.58
421.102548,1.61
421.202548,1.53
421.302548,1.45
421.402548,1.39
421.502548,1.35
421.602548,1.29
421.702556,1.27
421.802564,1.25
421.902564,1.24
422.002564,1.24
422.102564,1.18
422.202564,1.23
422.302564,1.73
422.402564,2.83
422.502564,3.81
422.602572,4.02
422.702572,2.11
422.802572,1.73
422.902572,1.89
423.002572,1.96
423.102572,1.96
423.202572,1.89
423.302572,1.77
423.402572,1.63
423.502572,1.52
423.602572,1.46
423.702572,1.45
423.802572,1.49
423.902572,1.47
424.002576,1.36
424.102572,1.29
424.202572,1.53
424.30258,2.67
424.40258,4.45
424.50258,4.82
424.60258,4.81
424.70258,2.36
424.80258,2.15
424.90258,2.34
425.00258,2.38
425.10258,2.24
425.20258,1.96
425.30258,1.7
425.40258,1.7
425.50258,1.4
425.60258,1.28
425.70258,1.21
425.802584,1.15
425.902588,1.16
426.002588,1.13
426.102588,1.12
426.202588,1.08
426.302588,1.18
426.402588,1.69
426.502588,3.63
426.602588,4.81
426.702588,4.81
426.802588,2.5
426.902588,2.04
427.002588,2.22
427.102588,2.23
427.202588,2.14
427.302588,2.02
427.402588,1.77
427.502588,1.56
427.602588,1.39
427.702588,1.32
427.802596,1.27
427.902596,1.25
428.002596,1.24
428.102596,1.22
428.202596,1.16
428.302596,1.19
428.402596,1.96
428.502596,4.81
428.602596,4.81
428.702596,4.81
428.802596,3.57
428.902604,3.1
429.002604,3.51
429.102604,3.61
429.202604,3.52
429.302604,3.19
429.402604,2.76
429.502604,2.39
429.602604,2.09
429.702604,1.81
429.802604,1.62
429.902604,1.46
430.002604,1.38
430.102604,1.3
430.202604,1.26
430.302604,1.21
430.402604,1.29
430.502604,1.18
430.602604,1.15
430.702612,1.14
430.80262,1.16
430.90262,1.37
431.00262,3.7
431.10262,4.81
431.20262,4.81
431.30262,4.81
431.40262,3.2
431.50262,3.07
431.60262,3.18
431.70262,3.13
431.80262,2.87
431.90262,2.54
432.00262,2.18
432.10262,1.93
432.202628,1.7
432.302628,1.57
432.402628,1.65
432.502628,1.76
432.602628,1.58
432.702636,1.3
432.802644,1.22
432.902644,1.18
433.002644,1.19
433.102644,1.35
433.202644,2.43
433.302644,4.81
433.402644,4.81
433.502644,4.81
433.602644,2.6
433.702644,2.48
433.802644,2.56
433.902652,2.53
434.00266,2.35
434.10266,2.13
434.20266,1.89
434.30266,1.76
434.40266,1.63
434.502672,1.43
434.602668,1.3
434.702668,1.28
434.802668,1.25
434.902676,1.23
435.002676,1.18
435.102684,1.16
435.202684,1.13
435.302684,1.21
435.402684,1.67
435.502692,4.81
435.602692,4.81
435.702692,4.81
435.802692,4.81
435.902692,3.43
436.002692,3.73
436.102692,3.86
436.202692,3.78
436.302692,3.5
436.402692,3.18
436.502692,2.69
436.6027,2.32
436.7027,2.05
436.8027,1.9
436.9027,1.73
437.0027,1.58
437.1027,1.49
437.2027,1.39
437.3027,1.3
437.4027,1.28
437.5027,1.24
437.6027,1.34
437.7027,1.65
437.8027,4.07
437.9027,4.81
438.002708,4.81
438.102708,4.81
438.202708,2.69
438.302708,2.96
438.402708,3.32
438.502708,3.22
438.602708,2.8
438.702708,2.51
438.802708,1.89
438.902708,1.61
439.002708,1.51
439.102708,1.42
439.202708,1.41
439.302708,1.64
439.402708,1.69
439.502708,1.67
439.602708,1.46
439.702708,1.34
439.802708,2.11
439.902708,4.81
440.002708,4.81
440.102716,4.81
440.202716,4.81
440.302716,3.39
440.402716,2.06
440.502716,2.77
440.602716,3.31
440.702716,3.41
440.802716,3.16
440.902716,2.83
441.002716,2.46
441.102716,2.12
441.202716,1.88
441.302716,1.76
441.402716,1.75
441.502716,1.52
441.602716,1.38
441.702716,1.35
441.802716,1.3
441.902716,1.31
442.002716,1.37
442.102716,3.91
442.202716,4.81
442.302716,4.81
442.402716,4.81
442.502724,3.43
442.602724,3.49
442.702724,3.49
442.802724,3.3
442.902724,2.99
443.002724,2.66
443.102724,2.35
443.202724,2.28
443.302732,2.23
443.402732,1.75
443.502732,1.52
443.602732,1.41
443.702732,1.38
443.802732,1.3
443.902732,1.24
444.002732,1.19
444.102732,1.18
444.202732,1.18
444.302732,2.15
444.402732,4.81
444.502732,4.81
444.602732,4.68
444.702736,2.53
444.802732,3.05
444.902732,3.16
445.00274,2.96
445.10274,2.63
445.20274,2.29
445.30274,2.1
445.40274,1.83
445.50274,1.66
445.60274,1.54
445.70274,1.41
445.80274,1.35
445.90274,1.35
446.00274,1.33
446.10274,1.26
446.20274,1.16
446.30274,1.1
446.40274,1.17
446.50274,1.96
446.60274,4.81
446.70274,4.81
446.80274,4.81
446.90274,4.81
447.00274,4.47
447.102748,4.81
447.202748,4.82
447.302748,4.81
447.402748,4.4
447.502748,3.6
447.602748,2.69
447.702748,2.02
447.802748,1.84
447.902748,1.94
448.002748,2.17
448.102748,2.85
448.202748,3.64
448.302748,3.36
448.402748,2.53
448.502756,4.5
448.602756,4.81
448.702756,4.46
448.802756,3.04
448.902756,2.38
449.002756,2.54
449.102756,3.84
449.202756,4.49
449.302756,3.18
449.402756,2.31
449.502756,2.09
449.602764,2.37
449.702764,2.42
449.802764,2.11
449.902764,2.17
450.002764,2.56
450.102764,2.71
450.202764,2.52
450.302764,2.55
450.402764,2.39
450.502764,4.81
450.602764,4.81
450.702764,4.81
450.802764,4.81
450.902764,4.81
451.002764,4.81
451.102764,4.81
451.202764,4.81
451.302764,4.81
451.402772,4.81
451.50278,4.81
451.60278,4.82
451.70278,4.82
451.80278,4.82
451.90278,4.81
452.00278,4.82
452.10278,4.81
452.20278,4.81
452.302788,4.81
452.402796,4.81
452.502796,4.81
452.602796,4.82
452.702796,4.82
452.802796,4.82
452.902796,4.81
453.002796,4.82
453.102796,4.81
453.202796,4.82
453.302796,4.82
453.402796,4.82
453.502796,4.82
453.602796,4.82
453.702796,4.82
453.802804,4.82
453.902804,4.82
454.002804,4.81
454.102804,4.81
454.202804,4.82
454.302804,4.81
454.402804,4.81
454.502804,4.81
454.602812,4.82
454.70282,4.82
454.80282,4.82
454.90282,4.82
455.00282,4.82
455.10282,4.82
455.202828,4.81
455.30282,4.82
455.40282,4.82
455.50282,4.82
455.60282,4.82
455.70282,4.82
